# YYYYMMDD	YYYY.DECM	N_filt(mm)	E_filt(mm)	U_filt(mm)	Azimuth(deg)
20130101	2013.0014	7.94358364	0	-2.460695064	0
20130102	2013.0041	8.872495445	-1.333077344	-0.8400333665	351.4553215
20130103	2013.0068	9.619376892	-2.031402098	0.2341720104	348.075585
20130104	2013.0096	8.536151996	-1.364623973	-0.449837586	350.9173172
20130105	2013.0123	1.404084369	-1.625840101	-1.190585195	310.8140693
20130106	2013.0151	1.473371005	-1.064095229	-1.632753951	324.1625017
20130107	2013.0178	1.492365078	-0.8507693303	-3.235372583	330.3133468
20130108	2013.0205	1.458349626	-0.5480630402	-5.337990052	339.4032548
20130109	2013.0233	1.377353527	-0.4428541082	-4.185417075	342.1760842
20130110	2013.0260	1.25675656	-0.3631963335	-4.453691466	343.8809717
20130111	2013.0288	1.273147744	-0.3364962403	-5.006082049	345.1951163
20130112	2013.0315	0.8127061805	-0.3387582806	-5.110393568	337.3722839
20130113	2013.0342	0.7957693192	-0.512581169	-5.260231103	327.2130843
20130114	2013.0370	0.5552153614	-0.2823346721	-5.300363705	333.0460355
20130115	2013.0397	0.3648666034	-0.4428772729	-5.238908241	309.48357
20130116	2013.0425	0.1846226531	-0.2580858849	-5.083996538	305.5781699
20130117	2013.0452	-0.9214653862	-0.5381264264	-6.194800017	210.2844944
20130118	2013.0479	-0.1270440046	0.6921958201	-6.237479864	100.4001841
20130119	2013.0507	-0.2545549726	-2.257239864	-6.072551496	263.565786
20130120	2013.0534	-0.3518899298	-0.66432956	-5.708900438	242.0901975
20130121	2013.0562	-0.4330419731	-0.6091803573	-5.151813533	234.5924999
20130122	2013.0589	0.3812276612	-0.5254341795	-4.306050777	305.9626829
20130123	2013.0616	-0.5373776893	-0.4115338566	-2.094599338	217.4455659
20130124	2013.0644	-0.6284949024	-0.2720880651	-2.37433665	203.4087555
20130125	2013.0671	-0.5896588142	-0.1117535445	-2.582647902	190.7315529
20130126	2013.0699	-0.5971029965	-0.1204596723	-0.5986265379	191.4057711
20130127	2013.0726	-0.5466547876	0.2507246615	0.6973585424	155.3613181
20130128	2013.0753	0.2807759599	0.5697128486	1.784681418	63.7641849
20130129	2013.0781	-0.4496459954	0.5972060251	2.582517458	126.9766772
20130130	2013.0808	-0.3265892126	0.8127373605	3.18461236	111.8921638
20130131	2013.0836	-0.2514013179	0.9817796482	1.573868875	104.3629364
20130201	2013.0863	0.4962623605	1.380109914	1.799465965	70.22234021
20130202	2013.0890	-0.1358387252	1.202629171	2.236807314	96.44432913
20130203	2013.0918	-0.1049866644	1.422128789	1.952641452	94.22212164
20130204	2013.0945	-0.09311887117	1.391785308	2.568974793	93.82773015
20130205	2013.0973	-0.09923452425	1.402298551	2.069452205	94.04782341
20130206	2013.1000	-0.1223324598	1.376672288	2.191381232	95.07802179
20130207	2013.1027	-0.1614107468	1.31640584	4.225092884	96.99041374
20130208	2013.1055	-0.2154674747	1.246932649	4.087119544	99.8037839
20130209	2013.1082	-0.3114723095	1.058008168	0.3834285704	106.4041649
20130210	2013.1110	-0.3526747101	0.9446923671	2.359542029	110.4717238
20130211	2013.1137	0.043071672	0.5851219884	2.604175262	85.78996844
20130212	2013.1164	-0.01716064516	0.6294036261	2.589957909	91.56177844
20130213	2013.1192	0.0937008891	0.4456552094	2.714664762	78.126271
20130214	2013.1219	-0.2448802405	0.3185702468	0.8394532846	127.5489492
20130215	2013.1247	-0.3346227909	0.238197448	4.097749576	144.5552677
20130216	2013.1274	-0.5932811543	0.2209370367	4.650040831	159.5747426
20130217	2013.1301	-1.862059496	0.2804741068	5.216177403	171.4341738
20130218	2013.1329	-1.113352774	0.4177906608	4.928248896	159.4311708
20130219	2013.1356	-1.270038095	0.6281155236	4.999261194	153.6846435
20130220	2013.1384	-1.17397425	0.9048542344	5.903020596	142.3763457
20130221	2013.1411	-1.084942137	1.237147562	2.780597614	131.2498127
20130222	2013.1438	-0.9681032488	1.648745731	3.746516011	120.4204159
20130223	2013.1466	-0.8375731595	0.2584879719	3.309589807	162.8489687
20130224	2013.1493	-0.7513406178	2.328090169	4.081135025	107.8863597
20130225	2013.1521	-0.6185557078	2.755422085	1.145331631	102.6523895
20130226	2013.1548	-0.7763735418	3.077615099	0.5819668728	104.1583013
20130227	2013.1575	-1.078519838	3.337444671	1.563426494	107.908621
20130228	2013.1603	-0.5286167612	3.515668347	1.68980201	98.55095098
20130301	2013.1630	-0.2592172692	3.593047045	-0.4698287828	94.12640533
20130302	2013.1658	0.4549140636	3.550341679	-0.9698333407	82.69833596
20130303	2013.1685	-0.7789850098	2.703891277	-1.456312671	106.0715724
20130304	2013.1712	-0.02981118044	2.573199616	0.1638500942	90.66375667
20130305	2013.1740	0.1126539191	2.616385209	-1.216112412	87.53453361
20130306	2013.1767	0.5913696262	2.193402096	-1.115538612	74.91109601
20130307	2013.1795	0.216322998	1.956993057	0.6735386098	83.69222067
20130308	2013.1822	0.005803957683	1.698041711	0.217008047	89.80416206
20130309	2013.1849	0.4880014691	1.279456052	1.017542535	69.12248699
20130310	2013.1877	1.369317984	1.176588056	1.477014877	40.67085773
20130311	2013.1904	-0.2346267521	1.777419783	2.261789503	97.5198029
20130312	2013.1932	-1.722319879	0.4857590439	2.328835417	164.2495501
20130313	2013.1959	-0.322542659	-0.3314631605	3.673881391	225.7814539
20130314	2013.1986	-0.7253340185	-0.5720724003	4.238785124	218.2629156
20130315	2013.2014	-0.6559623219	-0.4251825255	4.672052345	212.9505536
20130316	2013.2041	-0.8797246784	-0.2009475475	3.765737445	192.8668076
20130317	2013.2068	-0.9554624188	-0.2058418195	5.604806837	192.1578021
20130318	2013.2096	-2.65288502	1.267516993	4.872468581	154.4620823
20130319	2013.2123	-1.233083892	0.1961801089	2.444902128	170.9601695
20130320	2013.2151	0.2101618244	1.292093707	1.449963665	80.76162047
20130321	2013.2178	-1.303785021	0.222442119	4.61695979	170.317846
20130322	2013.2205	-1.283798632	-0.5635847581	4.503032125	203.701368
20130323	2013.2233	-1.224771695	-0.624349819	4.236819666	207.0110466
20130324	2013.2260	-1.12794303	-0.7057995225	3.80521077	212.0358786
20130325	2013.2288	-0.9985614616	-0.06255219015	3.22020217	183.584456
20130326	2013.2315	-1.000317352	-1.470532348	2.510670308	235.7748312
20130327	2013.2342	-0.6772977869	-1.333877206	1.622793865	243.0800785
20130328	2013.2370	-1.106865546	-0.9667938527	0.9169090553	221.1356508
20130329	2013.2397	-0.7647864449	-1.357337952	-0.1979317194	240.6010953
20130330	2013.2425	-1.455190925	-1.508137798	-1.059328696	226.0236156
20130331	2013.2452	-0.5111011231	-1.022485311	-1.754441332	243.4412939
20130401	2013.2479	-0.3037510089	-1.03267403	-2.607189956	253.6092671
20130402	2013.2507	-0.03551555098	-1.082941245	-2.681506646	268.1216321
20130403	2013.2534	0.2158738789	-1.927402685	-4.781557902	276.3906356
20130404	2013.2562	0.503033921	-0.8324841797	-4.760581391	301.1427402
20130405	2013.2589	0.7997064924	-1.468963581	-5.306777403	298.5639543
20130406	2013.2616	1.300457182	-1.642322095	-4.614112855	308.3736082
20130407	2013.2644	1.321856596	-1.819591984	-3.976621105	305.9968185
20130408	2013.2671	1.603439018	-2.20271309	-6.978398495	306.052304
20130409	2013.2699	1.82423668	-2.080929824	-7.118959652	311.2392624
20130410	2013.2726	1.9212864	-2.48372049	-5.74805613	307.7238075
20130411	2013.2753	1.9046205	-2.350042011	-6.788723638	309.0234637
20130412	2013.2781	2.554651847	-2.395424958	-6.297063723	316.8423723
20130413	2013.2808	2.30183542	-2.400490335	-5.589697544	313.7981094
20130414	2013.2836	1.120708701	-2.46803829	-4.692454746	294.4222699
20130415	2013.2863	0.9390235402	-2.289966965	-6.041253559	292.2965654
20130416	2013.2890	-0.2872907086	-2.530223616	-2.422483967	263.5221733
20130417	2013.2918	-0.6775594361	-2.602533553	-2.071480655	255.4072114
20130418	2013.2945	-1.769300426	-2.572223413	2.940505484	235.4779141
20130419	2013.2973	-1.534101716	-2.430215748	-2.948969369	237.7373582
20130420	2013.3000	-2.414554882	-3.326507194	1.373845338	234.0258701
20130421	2013.3027	-2.258084674	-0.7080522789	1.981732677	197.4095056
20130422	2013.3055	-1.814827475	-0.5215455711	2.369879956	196.0336057
20130423	2013.3082	-1.234312515	-1.149963792	2.547837451	222.9738878
20130424	2013.3110	-1.176599825	-1.670173733	2.529940243	234.8361658
20130425	2013.3137	-1.086834006	-0.7297965246	2.330523411	213.880906
20130426	2013.3164	-0.9699948872	-0.4021508251	1.963922034	202.5184397
20130427	2013.3192	-0.8310626734	-0.04596538078	1.275207082	183.1657561
20130428	2013.3219	0.3428254715	0.3699767207	0.9318116111	47.18139097
20130429	2013.3247	-0.06119211428	0.906111355	0.09464678328	93.86347046
20130430	2013.3274	1.284712176	1.44134895	4.49081743	48.28854289
20130501	2013.3301	1.269421147	1.980947107	-0.3871592934	57.34763121
20130502	2013.3329	0.6779251985	2.500646915	-5.325990732	74.83170201
20130503	2013.3356	0.8553996639	2.979234	-1.517886887	73.98013339
20130504	2013.3384	0.937427028	3.63374254	-2.13902071	75.53433287
20130505	2013.3411	1.08185122	3.765140678	-2.340447335	73.9688661
20130506	2013.3438	1.108532083	4.065432446	-3.536041831	74.74779636
20130507	2013.3466	1.136052368	4.244944875	-3.527257078	75.01734464
20130508	2013.3493	1.130683577	4.289510284	-3.351722822	75.2331409
20130509	2013.3521	1.096901138	3.586051619	-3.71477077	72.99218116
20130510	2013.3548	0.9507209804	2.838179214	-3.742527606	71.48040394
20130511	2013.3575	0.9992414405	2.171575593	-3.747970363	65.29067423
20130512	2013.3603	0.8445473699	1.666000749	-2.423570917	63.11813828
20130513	2013.3630	0.7358460576	1.343000388	-6.207486272	61.28113549
20130514	2013.3658	0.6290921899	0.9889775588	-4.720401596	57.53941335
20130515	2013.3685	0.5327337422	0.8075517028	-3.573073608	56.5875649
20130516	2013.3712	0.4490183193	0.5095555301	-4.258604525	48.61362503
20130517	2013.3740	0.3747294658	0.2798016209	-4.367462141	36.7478263
20130518	2013.3767	0.3056262543	0.6625786004	-3.595066638	65.23763942
20130519	2013.3795	0.2374665274	-0.06501969575	-3.01139568	344.6873839
20130520	2013.3822	0.1660023711	-0.6448713484	-2.554193087	284.4356321
20130521	2013.3849	0.08698071441	-0.2747432128	-2.119960865	287.567221
20130522	2013.3877	-0.003855353554	-0.3380297049	-1.733785435	269.3465488
20130523	2013.3904	-0.1078921313	-0.3784500171	-0.108433071	254.0877047
20130524	2013.3932	-0.2149986463	0.008790707424	-2.602840528	177.6586362
20130525	2013.3959	-0.3779930095	1.354028924	-0.9406264945	105.5976973
20130526	2013.3986	-0.4043395545	1.838890699	-0.7679660611	102.4009871
20130527	2013.4014	-0.4201763316	1.265017335	-0.5602655385	108.3739408
20130528	2013.4041	-1.310248023	0.7895484705	-3.430936588	148.9270572
20130529	2013.4068	-0.4266738546	0.7222028114	-0.3432834153	120.5743841
20130530	2013.4096	-0.1430401939	0.38539783	-0.2502276392	110.3623804
20130531	2013.4124	-0.2562183644	0.1535369757	-0.1041267114	149.0681601
20130601	2013.4151	-0.1051844197	-0.4737576156	0.1176505398	257.4821471
20130602	2013.4178	0.02028111715	-0.7211923612	0.193314289	271.6108272
20130603	2013.4205	0.125421422	1.12765116	0.4503537925	83.65344177
20130604	2013.4233	-0.5637826294	-1.32064196	0.6618128407	246.8823428
20130605	2013.4260	-0.5841108404	-1.636952512	-0.9044747885	250.3621659
20130606	2013.4288	-0.5754279232	-1.715207617	0.366183784	251.4541247
20130607	2013.4315	-0.5415998604	-1.079033955	-2.140766725	243.3465377
20130608	2013.4342	-0.4880541679	-1.169579012	-2.410634632	247.349688
20130609	2013.4370	-0.4269124994	-1.225343148	-2.396303948	250.7915404
20130610	2013.4397	-0.3110972525	-0.9411262843	2.004397333	251.7082599
20130611	2013.4425	-0.363564191	-1.310499586	2.172026481	254.4947024
20130612	2013.4452	-0.7038752448	-1.194496671	2.213104073	239.4906377
20130613	2013.4479	-0.7908679563	-0.8636304689	2.437079107	227.5181651
20130614	2013.4507	-0.8341629771	-1.080048538	2.549716545	232.3197123
20130615	2013.4534	-0.8242857712	-0.8016348084	2.631162091	224.2018548
20130616	2013.4562	0.5004685126	-0.005483860589	2.677534702	359.3722093
20130617	2013.4589	-0.4356029586	-1.097809983	2.684953333	248.3571847
20130618	2013.4616	0.5146449979	-1.18477774	4.388666101	293.479213
20130619	2013.4644	0.4677033249	-1.250534398	2.872699514	290.5059359
20130620	2013.4671	0.234370029	-1.289827204	2.579237806	280.298654
20130621	2013.4699	0.3236643116	-1.299005969	2.141535738	283.9911026
20130622	2013.4726	-1.932538772	-1.280807393	1.600396096	213.5347837
20130623	2013.4753	-1.37309258	-1.239472139	0.8178612102	222.0721406
20130624	2013.4781	2.260970023	-1.179194473	1.704917501	332.4559945
20130625	2013.4808	-0.09099235513	-1.104149791	0.9574913965	265.288933
20130626	2013.4836	-0.1684228366	-1.018499583	-0.9699158629	260.6103312
20130627	2013.4863	-0.2388863873	-0.9265556785	-0.2783816254	255.5427372
20130628	2013.4890	-0.0359374709	-0.7743301283	-0.7102446161	267.3427498
20130629	2013.4918	-0.3605548727	-1.602474401	-1.01954469	257.3196801
20130630	2013.4945	-0.4125808953	-1.381178791	-3.084464769	253.3682466
20130701	2013.4973	-0.9657940952	-1.16037808	-3.127721248	230.2290546
20130702	2013.5000	-1.146365296	-0.7994801706	-3.056447607	214.8920874
20130703	2013.5027	-1.32459443	-0.4318935549	-2.65974154	198.058931
20130704	2013.5055	-1.421814124	-0.3658210353	-0.1037040111	194.4287743
20130705	2013.5082	-1.441130777	-0.06316382552	-1.710749658	182.5096306
20130706	2013.5110	-1.481748611	0.1783306763	-3.456088907	173.1373735
20130707	2013.5137	-1.395974483	0.3859520301	-3.234221461	164.5452095
20130708	2013.5164	-1.253594286	0.7797714083	-4.178915767	148.1172093
20130709	2013.5192	-1.195701364	0.9982970201	-4.096418387	140.1413265
20130710	2013.5219	-1.132172625	2.058644704	-3.997686569	118.8090423
20130711	2013.5247	-0.9704007466	1.101473745	-3.880922195	131.380121
20130712	2013.5274	-0.7256759646	1.05090618	-3.820627111	124.6260109
20130713	2013.5301	-0.7361287658	0.9240963004	-3.733126349	128.5405864
20130714	2013.5329	-0.5954455937	0.7917050982	-3.609738325	126.9470192
20130715	2013.5356	-0.4767233066	0.2596020978	-3.472324806	151.4292739
20130716	2013.5384	-0.3636692414	0.05754124672	-3.342747561	171.008961
20130717	2013.5411	-0.2584451286	0.1692229998	1.687440751	146.7842869
20130718	2013.5438	-0.1632126989	0.1599179816	-8.034872446	135.5841812
20130719	2013.5466	-0.08013368307	-0.2557898419	-2.870542666	252.6053021
20130720	2013.5493	-0.0113698117	-0.3282665326	-3.072335327	268.0163012
20130721	2013.5521	0.03900984074	-0.3601809371	-2.988144008	276.1813955
20130722	2013.5548	0.05930682449	-0.3473389876	-2.743107322	279.6895954
20130723	2013.5575	-0.75326354	-0.2910760804	-2.577913046	201.1275279
20130724	2013.5603	-0.03644320575	0.02905576796	-2.349834091	141.4350289
20130725	2013.5630	0.03628081592	-0.4362803637	-2.080244543	274.753745
20130726	2013.5658	-0.3768368423	-0.632023439	-1.776380171	239.1949666
20130727	2013.5685	-0.9584531512	-0.07534118597	-1.445476741	184.4946106
20130728	2013.5712	-1.186415414	0.4827578576	-1.095761887	157.8583676
20130729	2013.5740	-1.496899081	1.12338018	-0.7394306964	143.1128147
20130730	2013.5767	-1.59302373	1.752114625	-0.3896709387	132.2771309
20130731	2013.5795	-1.743881836	0.7553468925	-0.05967520674	156.5805809
20130801	2013.5822	-1.894706482	1.723196535	0.2373521299	137.714126
20130802	2013.5849	-1.969902029	1.436790982	0.4881822246	143.8940435
20130803	2013.5877	-1.991514161	2.202967896	0.6854537536	132.1140278
20130804	2013.5904	-3.446437748	2.286130451	0.2127736929	146.4424331
20130805	2013.5932	-1.360231751	2.667335503	1.007053254	117.0197174
20130806	2013.5959	-1.962582313	2.892120414	0.7206534797	124.1606717
20130807	2013.5986	-1.201829397	3.270304452	1.211650515	110.1782645
20130808	2013.6014	-1.368822111	2.331299167	0.5173604376	120.419322
20130809	2013.6041	-1.02543983	2.277088605	0.5027512515	114.243436
20130810	2013.6069	-0.7320548928	2.259238481	0.7176667486	107.9537387
20130811	2013.6096	-1.414859479	2.200080165	1.142830055	122.7448485
20130812	2013.6124	-0.05131771006	2.154913524	1.758960942	91.36419978
20130813	2013.6151	-0.9877088267	2.112160053	2.546776309	115.0621882
20130814	2013.6178	-0.9317047513	2.158204473	3.486990737	113.3500338
20130815	2013.6206	0.2335895067	2.135395815	4.560317338	83.7572746
20130816	2013.6233	0.2381849186	2.104765245	6.927876305	83.54361315
20130817	2013.6261	0.160885691	2.172195211	6.722589172	85.76406842
20130818	2013.6288	0.0007047928109	1.974555063	7.713213237	89.97954899
20130819	2013.6315	-0.2111432394	1.920988642	8.040853684	96.27242089
20130820	2013.6342	-0.7939243167	1.81951965	8.140060257	113.5734393
20130821	2013.6370	-0.7057764695	1.718871876	7.968020598	112.3232722
20130822	2013.6397	-1.008790228	1.61610472	7.365221904	121.9728608
20130823	2013.6425	-1.201141731	1.463238638	6.83451207	129.3818506
20130824	2013.6452	-1.758966482	1.245644881	5.898988541	144.695071
20130825	2013.6479	-1.308766368	0.9743341391	4.878252328	143.3335114
20130826	2013.6507	-1.192956185	0.7215470241	3.796578228	148.8327941
20130827	2013.6534	-0.7037666255	-2.067765508	2.714132409	251.2039277
20130828	2013.6562	-0.4947289176	-0.004834120104	1.621209408	180.5598336
20130829	2013.6589	-0.04306488863	-0.6846256886	1.003200699	266.4006759
20130830	2013.6616	0.5655150489	-0.7139362167	-0.1121020584	308.3830491
20130831	2013.6644	0.7549293794	-1.030782902	-0.6247158082	306.2184678
20130901	2013.6671	0.9277127095	-1.397507668	-1.443365052	303.5775479
20130902	2013.6699	1.08826175	-1.652074666	-2.051159699	303.3738678
20130903	2013.6726	1.440603184	-1.839153299	-2.612090018	308.0714902
20130904	2013.6753	1.604319177	-1.776707218	-3.137810152	312.0811936
20130905	2013.6781	1.719175043	-1.789188746	-3.640757108	313.8567442
20130906	2013.6808	1.777414788	-1.721377371	-4.125856637	315.9175832
20130907	2013.6836	1.781955071	-1.582020911	-4.556246523	318.4013096
20130908	2013.6863	1.739835875	-1.388486133	-4.884421844	321.4081792
20130909	2013.6890	1.658485226	-1.084774232	-5.062877677	326.8122919
20130910	2013.6918	1.489618941	-0.8693575831	-3.250585886	329.7317062
20130911	2013.6945	1.421920483	-0.5897330507	-4.793419177	337.4740617
20130912	2013.6973	1.253324801	-0.2914868465	-4.135112792	346.9074147
20130913	2013.7000	1.089328583	-1.488967726	-3.771560181	306.1891972
20130914	2013.7027	0.9229127973	1.642535861	-0.9575471419	60.66911285
20130915	2013.7055	0.7380399303	0.8719450525	-3.483394006	49.7544422
20130916	2013.7082	0.6547169921	-0.9705996942	-1.973202935	304.0015917
20130917	2013.7110	0.9397248871	0.3734165962	5.423803052	21.67128932
20130918	2013.7137	-0.357365356	0.253928154	-0.9229015633	144.604068
20130919	2013.7164	-0.4774032128	0.05544402917	-0.7483091958	173.3755344
20130920	2013.7192	-0.5821033511	-0.2071753793	-0.2380227113	199.5910633
20130921	2013.7219	-0.5953504138	0.4362389292	-0.7525291429	143.7681585
20130922	2013.7247	-0.7069619253	-0.8164470107	-0.8103831873	229.110693
20130923	2013.7274	-0.7328348105	-1.148069812	-0.3468438449	237.4491351
20130924	2013.7301	-0.7047945032	-1.280866266	-1.026463624	241.1782843
20130925	2013.7329	-0.9578687129	-1.674084204	-1.347787775	240.2228999
20130926	2013.7356	-0.6955990962	-1.132636401	-1.771083047	238.4441848
20130927	2013.7384	-0.6599534512	-2.760712725	-3.363105865	256.5556447
20130928	2013.7411	-0.620216461	-2.447443629	-4.55310912	255.7798039
20130929	2013.7438	-1.739881378	-2.060951734	-1.275823521	229.8285219
20130930	2013.7466	-0.8658555991	-1.959320922	-3.142020542	246.1585895
20131001	2013.7493	-0.8253586955	-1.799828931	-3.085390739	245.3649372
20131002	2013.7521	0.6328528862	-1.595283966	-1.631542437	291.6383436
20131003	2013.7548	-0.6825134703	-1.041536427	-2.996810999	236.7633805
20131004	2013.7575	-0.5678474381	-1.682566414	-2.099212519	251.3510337
20131005	2013.7603	-1.994941746	-0.8332220143	-2.439427188	202.6687006
20131006	2013.7630	-0.3779477028	-0.565863145	-2.529999665	236.2604988
20131007	2013.7658	-0.4566104109	-0.3126030689	-1.951592138	214.3961893
20131008	2013.7685	-0.529803924	-0.08704157806	-1.82310139	189.3297884
20131009	2013.7712	-0.08914402227	0.1435462388	-1.562131409	121.8408018
20131010	2013.7740	-0.9981402186	0.1791776975	-3.709473281	169.8231364
20131011	2013.7767	0.03987445277	0.04223468733	-2.747863938	46.6465189
20131012	2013.7795	0.08423965409	0.2305917898	-0.2489852426	69.93177072
