# YYYYMMDD	YYYY.DECM	N_filt(mm)	E_filt(mm)	U_filt(mm)	Azimuth(deg)
20130101	2013.0014	1.260380606	-0.2757614584	-1.972679848	347.6586047
20130102	2013.0041	4.136294375	-1.016640911	2.287973346	346.1912532
20130103	2013.0068	1.583179799	-1.769571478	-0.525855289	311.817994
20130104	2013.0096	1.675042728	-1.551866817	-0.3747936635	317.1860034
20130105	2013.0123	1.191220552	-1.349818214	-1.257423311	311.4285454
20130106	2013.0151	1.36521619	-1.165837426	-2.201508153	319.5040614
20130107	2013.0178	1.475551456	-1.002336211	-3.119033151	325.8118889
20130108	2013.0205	1.524479841	-0.8617263269	-3.683841282	330.5222935
20130109	2013.0233	1.515456472	-0.7464195317	-4.551218893	333.7780128
20130110	2013.0260	1.585747056	-0.6588275832	-5.771539593	337.4386658
20130111	2013.0288	1.161445766	-0.0103410608	-4.721785933	359.4898742
20130112	2013.0315	1.908808907	-0.5685847946	-5.337129032	343.4125672
20130113	2013.0342	1.853858825	-0.559668748	-4.905093735	343.2012528
20130114	2013.0370	0.9726720993	-0.5698305466	-5.785906544	329.6365076
20130115	2013.0397	0.7224486114	-0.5952599903	-6.052404976	320.5132566
20130116	2013.0425	1.682232723	-0.604067744	-5.498489931	340.2474512
20130117	2013.0452	-0.4428760081	-0.9465062019	-5.40726724	244.9248204
20130118	2013.0479	-0.780561414	-1.13925076	-5.188610035	235.5828789
20130119	2013.0507	-0.08483368665	-1.041275796	-4.844915695	265.3423476
20130120	2013.0534	-0.1496515241	-1.082775608	-4.78310637	262.1309447
20130121	2013.0562	-0.2644906674	-1.138322102	-4.034557005	256.9193482
20130122	2013.0589	-0.3526288064	-1.129063185	-3.053180441	252.6553811
20130123	2013.0616	-0.4121675973	-1.096688975	-2.643574697	249.4023204
20130124	2013.0644	0.8486989286	-1.403127871	-2.251209468	301.1681556
20130125	2013.0671	0.2369717037	-1.21724035	-1.940133481	281.0165156
20130126	2013.0699	0.2140960141	-1.237972736	-1.527108807	279.8117289
20130127	2013.0726	0.2872829652	-0.6515377474	-1.212863652	293.7941529
20130128	2013.0753	0.8672151784	-0.4166837255	0.1225305653	334.3364221
20130129	2013.0781	0.2458002554	-0.2328140235	-0.1875191018	316.5542239
20130130	2013.0808	0.2712868502	-0.0825198859	-0.5799783447	343.0813166
20130131	2013.0836	0.4405433392	0.1344259952	1.1934185	16.96887783
20130201	2013.0863	1.518923289	0.03663422742	-0.7529949575	1.381623271
20130202	2013.0890	1.163052929	0.5642227084	-0.9603171256	25.87904972
20130203	2013.0918	1.490572622	0.004661004091	-1.180453998	0.1791626844
20130204	2013.0945	1.765478493	-0.06502052323	-1.003521806	357.8908162
20130205	2013.0973	1.971469704	-0.1536553472	-1.721376137	355.5434054
20130206	2013.1000	2.092245416	-0.406778891	-2.375166751	348.997689
20130207	2013.1027	1.582289219	-0.3205127031	-2.162158015	348.5489554
20130208	2013.1055	1.567725095	-0.4762597239	0.1725659427	343.1017257
20130209	2013.1082	1.500319145	-0.8120388124	1.954710256	331.5757959
20130210	2013.1110	1.385104447	-0.5018444351	1.426812584	340.0837769
20130211	2013.1137	1.227611557	-0.8451522446	1.565315665	325.4544352
20130212	2013.1164	1.033371035	-0.9432573624	1.700074601	317.6102835
20130213	2013.1192	0.1609037607	-1.275764341	2.53808921	277.1883845
20130214	2013.1219	0.5567698843	-1.231919502	1.876145891	294.3207388
20130215	2013.1247	0.1774459476	-1.176693723	3.877142301	278.5756138
20130216	2013.1274	0.170521937	-0.3098198018	2.666621852	298.8279774
20130217	2013.1301	-0.2574084992	-0.8376884385	2.731457229	252.9186292
20130218	2013.1329	-0.6430982199	-1.030962542	2.913827885	238.0447339
20130219	2013.1356	-0.8030254007	-0.9853323221	0.9025941703	230.8206802
20130220	2013.1384	-1.006261898	-0.9146200489	2.963779972	222.2685917
20130221	2013.1411	-1.150457894	-0.8020279682	2.896112326	214.8818199
20130222	2013.1438	-1.219754884	-0.6307583263	3.063604796	207.34434
20130223	2013.1466	-1.198283762	-0.3221739911	3.093369274	195.048831
20130224	2013.1493	-1.076041952	0.1159342656	1.225841283	173.8505939
20130225	2013.1521	-0.8678283418	0.3605913466	1.733559054	157.4366272
20130226	2013.1548	0.4417656887	0.8971579101	2.339222785	63.78410119
20130227	2013.1575	-0.01517827881	1.030330513	2.52596377	90.84398977
20130228	2013.1603	-0.1057830493	1.70172966	2.703878164	93.55704771
20130301	2013.1630	0.324283906	1.874467718	-2.652930863	80.18494919
20130302	2013.1658	0.5502092868	2.16351799	3.037357482	75.73144958
20130303	2013.1685	0.7480714177	1.472366362	3.19510977	63.06604956
20130304	2013.1712	0.8862047722	1.423556002	3.348415959	58.09654223
20130305	2013.1740	0.9563875204	1.428587221	4.09663908	56.19912119
20130306	2013.1767	0.9503978328	1.410441748	4.162375806	56.02673175
20130307	2013.1795	1.03426704	1.371887859	3.448611711	52.98733874
20130308	2013.1822	2.982155165	1.315693829	4.69489727	23.8065408
20130309	2013.1849	-1.135015616	1.211316445	4.65537489	133.1374437
20130310	2013.1877	0.1048037428	0.4659073819	4.562029116	77.32259176
20130311	2013.1904	-0.2597829023	-0.8595467687	2.103350134	253.1834808
20130312	2013.1932	-0.2142595553	-0.09995673061	4.405735017	205.0100722
20130313	2013.1959	-0.9356350667	0.07857449327	4.082896497	175.199573
20130314	2013.1986	-1.464988039	-0.365651045	3.893863401	194.0143042
20130315	2013.2014	-1.849050023	0.3111574188	3.701572379	170.4477842
20130316	2013.2041	-2.195275401	0.7956794742	5.911842985	160.0769075
20130317	2013.2068	-2.088880843	1.199266311	3.3295234	150.1390452
20130318	2013.2096	-4.348442403	1.495206767	3.160162592	161.024529
20130319	2013.2123	-3.166375177	1.657198678	3.00879686	152.3736059
20130320	2013.2151	-2.534669896	2.973268555	2.881133433	130.4471283
20130321	2013.2178	-3.216747046	-0.2582011722	3.006212895	184.5891665
20130322	2013.2205	-3.216861973	-0.1822350898	2.852179101	183.2423379
20130323	2013.2233	-3.216418318	0.0211758631	2.793167644	179.6227885
20130324	2013.2260	-3.171214945	-0.03847844553	2.189420773	180.6951734
20130325	2013.2288	-3.081996675	-0.7171252759	2.35117711	193.0986277
20130326	2013.2315	-2.98212632	-0.9961222511	2.15911539	198.4709106
20130327	2013.2342	-2.711635357	0.1810394836	1.950190666	176.180376
20130328	2013.2370	-2.501845971	0.05075041585	1.720943519	178.8379037
20130329	2013.2397	-1.997694417	-0.06139528703	1.467361101	181.7603213
20130330	2013.2425	-2.220294926	-0.5102665567	1.393127627	192.9429293
20130331	2013.2452	-2.031207187	1.783322723	1.856608723	138.7180968
20130401	2013.2479	-1.864269362	0.5562423868	1.456896152	163.3864655
20130402	2013.2507	-1.714273089	0.4282978173	0.9164285939	165.9722645
20130403	2013.2534	-1.589476998	1.005105528	0.3733931505	147.6927924
20130404	2013.2562	-1.498139717	1.087497308	-0.1597793559	144.0241605
20130405	2013.2589	-2.168275469	1.717287227	-1.424686343	141.6205641
20130406	2013.2616	-1.637015527	2.855832816	-0.6325654164	119.8221224
20130407	2013.2644	-1.506925873	3.361332719	3.065258077	114.1472672
20130408	2013.2671	-1.628670268	3.740504615	-2.331689015	113.5290116
20130409	2013.2699	-0.05914019478	3.965602164	-2.023597142	90.85440552
20130410	2013.2726	-2.042719221	4.029833665	-2.394682151	116.880411
20130411	2013.2753	-3.373274884	3.931171937	-2.559818316	130.6323583
20130412	2013.2781	-2.196376695	3.667589802	-2.891154525	120.9157495
20130413	2013.2808	-2.67464411	3.237060081	-2.885182827	129.5654643
20130414	2013.2836	-2.769036063	2.644869251	-3.151260617	136.3138367
20130415	2013.2863	-2.755660096	1.357140173	-2.728077417	153.780129
20130416	2013.2890	-2.605447065	0.6464405468	-2.645984184	166.0656571
20130417	2013.2918	-2.300511483	1.523553057	-2.554055894	146.4848018
20130418	2013.2945	-2.391024964	-0.5500135138	-2.468071958	192.9545345
20130419	2013.2973	-2.521001894	-1.108199685	-2.28804174	203.7296669
20130420	2013.3000	0.5613421234	-1.661640477	-1.188889771	288.6662055
20130421	2013.3027	0.102952596	-2.319859193	-1.111750781	272.5410513
20130422	2013.3055	1.00473893	-2.206905472	-4.028573862	294.4783735
20130423	2013.3082	1.21074593	-2.224410191	-2.058982867	298.559442
20130424	2013.3110	2.335340353	-2.245923124	-0.1244516744	316.1181587
20130425	2013.3137	4.450094238	-1.951114724	-2.083861163	336.3252661
20130426	2013.3164	3.584010661	-3.130250078	-2.271692152	318.8662624
20130427	2013.3192	4.10458193	-2.363553167	-2.576410122	330.0652485
20130428	2013.3219	3.946419442	-0.4506401442	-0.9475066489	353.485633
20130429	2013.3247	5.441095269	-1.075815756	-3.439370857	348.8157081
20130430	2013.3274	4.772838646	-1.641195501	-3.945351242	341.0238785
20130501	2013.3301	4.558610428	-0.935521685	-4.614774474	348.4027335
20130502	2013.3329	3.852240988	-0.5607552406	-4.79089673	351.7178547
20130503	2013.3356	4.324486955	-0.427343396	-5.433391413	354.3563858
20130504	2013.3384	4.070101253	-0.1226046	-5.832493926	358.2745878
20130505	2013.3411	3.875333929	0.08856245157	-6.170479591	1.309144378
20130506	2013.3438	3.681062139	0.2914899905	-3.867648757	4.527597814
20130507	2013.3466	3.494924734	1.026933209	-7.470877475	16.37466426
20130508	2013.3493	3.836866764	0.8963493874	-9.770615971	13.14932297
20130509	2013.3521	3.177568395	0.8334228079	-4.021529449	14.69668233
20130510	2013.3548	3.060103626	0.9766765942	-4.398713089	17.70123965
20130511	2013.3575	2.969980182	1.085153797	-7.252083506	20.07099368
20130512	2013.3603	2.896182167	1.147965216	-7.326222806	21.62198296
20130513	2013.3630	2.760039836	1.281720941	-7.374572882	24.90944579
20130514	2013.3658	2.905746678	1.292539208	-7.394941889	23.98053673
20130515	2013.3685	2.054276585	2.16340672	-7.385445669	46.48216471
20130516	2013.3712	2.866110084	0.4253402281	-7.344200064	8.441274305
20130517	2013.3740	2.271212395	1.077956449	-6.594228154	25.38981985
20130518	2013.3767	2.509366466	0.5093537598	-6.153703532	11.47406846
20130519	2013.3795	2.557969664	0.3504240933	-5.740308477	7.800568028
20130520	2013.3822	2.503466161	1.083527569	-1.687774727	23.40348941
20130521	2013.3849	4.012109389	2.34585033	-5.073456881	30.31450671
20130522	2013.3877	2.366365274	0.798945866	-4.859275245	18.65600703
20130523	2013.3904	2.279831861	-0.6500565841	-1.342651684	344.0853705
20130524	2013.3932	2.177024359	-0.01751473094	-4.754634608	359.5390504
20130525	2013.3959	2.054570745	-0.03195824032	-5.244742842	359.108853
20130526	2013.3986	0.9578461695	-0.04191569056	-4.795924808	357.4943148
20130527	2013.4014	0.8265760055	-0.09528121198	-4.968538886	353.4244133
20130528	2013.4041	0.08115082768	-0.02622410353	-4.935649625	342.0916248
20130529	2013.4068	-0.3321462619	-0.1089366217	-8.369280316	198.1583454
20130530	2013.4096	-1.877338802	-0.3338913431	-6.968948059	190.0848055
20130531	2013.4123	-0.7418311268	-0.3735369447	-2.752230919	206.7267933
20130601	2013.4151	-0.4803530894	0.1965272261	-1.862856951	157.7490203
20130602	2013.4178	0.3678226379	-0.4567955289	-2.06211167	308.8418453
20130603	2013.4205	-0.3486821237	-1.140639624	1.941579217	253.0021318
20130604	2013.4233	-0.2654405198	1.786969963	1.100919986	98.44906258
20130605	2013.4260	-0.2249659197	-0.3040031898	1.891528779	233.4981254
20130606	2013.4287	-0.1997075647	-0.3082009556	4.152984438	237.0576338
20130607	2013.4315	-0.2060986321	-0.3323193995	7.949837885	238.1935402
20130608	2013.4342	-1.475559311	-0.3897733908	9.249110945	194.7968714
20130609	2013.4370	-1.567970402	-0.5800497899	6.852798351	200.3012833
20130610	2013.4397	-1.600100696	-0.5335707737	6.379524639	198.4415188
20130611	2013.4425	-1.585936407	-0.8904258173	5.708946321	209.3120825
20130612	2013.4452	-1.348894809	-1.175274633	4.233165141	221.0652167
20130613	2013.4480	-1.646931837	-1.496102769	8.488272411	222.2525774
20130614	2013.4507	-1.442312966	-1.837123678	7.627846786	231.8647891
20130615	2013.4535	-1.477154606	-2.50407196	6.216896205	239.4636021
20130616	2013.4562	-1.2745583	0.1016209679	5.50816691	175.4414311
20130617	2013.4589	-1.193732405	-1.733532905	4.393733253	235.4482166
20130618	2013.4616	-2.106890323	-1.719996977	4.001422116	219.2270858
20130619	2013.4644	-1.791460402	-1.634125681	3.082158188	222.3702939
20130620	2013.4671	-1.971236538	-1.537358813	2.277090877	217.9505137
20130621	2013.4699	-2.161478262	-3.48943065	1.470031323	238.2244435
20130622	2013.4726	-2.349798094	-1.234552573	-0.8064549825	207.7168372
20130623	2013.4753	-2.523810788	0.8244301404	0.09900145636	161.9098125
20130624	2013.4781	-2.919784256	-0.8566477404	-0.4225552991	196.3513821
20130625	2013.4808	-2.78536949	-0.7534230722	-1.376810518	195.1359018
20130626	2013.4836	-2.86715406	-0.6605040128	-1.214187638	192.9728542
20130627	2013.4863	-3.007945729	-0.6324120677	-1.416658879	191.8733419
20130628	2013.4890	-4.648827984	-1.05583643	-1.453506681	192.7958819
20130629	2013.4918	-2.757155135	-0.6869202627	-1.29170104	193.9899097
20130630	2013.4945	-2.573462315	-0.9675746397	-0.8982119505	200.6053401
20130701	2013.4973	-2.13941255	-1.046154082	-0.2400094089	206.05823
20130702	2013.5000	0.2355470009	1.634162939	0.7128284305	81.79792113
20130703	2013.5027	-1.482326265	1.710128412	1.957721277	130.918496
20130704	2013.5055	-0.8517302532	2.116845005	4.016347104	111.9178002
20130705	2013.5082	-0.05260209429	2.228850983	4.938348981	91.35196056
20130706	2013.5110	0.460351814	2.452047248	6.444276406	79.36696058
20130707	2013.5137	1.446377314	2.502505	7.887522019	59.97329895
20130708	2013.5165	1.852794071	2.493683291	9.152261558	53.38783781
20130709	2013.5192	2.716907629	2.43969421	10.05411889	41.92280208
20130710	2013.5220	0.4282568241	1.643784874	10.59917928	75.3972929
20130711	2013.5247	2.927291936	0.8402623523	10.77557118	16.01582203
20130712	2013.5274	5.524105743	2.010645746	7.9871036	20.00032682
20130713	2013.5302	5.478550812	2.150813213	8.089529553	21.43437529
20130714	2013.5329	4.970718297	2.363659684	8.078943936	25.43186923
20130715	2013.5357	1.907937038	2.497048919	7.956558244	52.61739563
20130716	2013.5384	1.911986916	2.522193464	7.723563045	52.83550278
20130717	2013.5411	0.8430431852	2.566075431	7.381137134	71.81288665
20130718	2013.5439	1.012734524	0.9892460041	6.930457562	44.3278
20130719	2013.5466	-0.2060826853	-0.1888983397	4.706105702	222.5088171
20130720	2013.5494	-1.095325766	-1.153077986	4.093973602	226.4713687
20130721	2013.5521	-1.075743041	-1.704716692	3.388139575	237.7464684
20130722	2013.5548	-2.21315438	-1.80995715	2.609144301	219.2769129
20130723	2013.5576	-1.746120662	-2.089183001	1.67024545	230.1114209
20130724	2013.5603	-2.884893976	0.1771340004	1.342212556	176.4864201
20130725	2013.5631	-3.000525288	0.3172733104	0.08840427089	173.9640159
20130726	2013.5658	-2.981735913	2.04045961	-0.7276305671	145.6154082
20130727	2013.5685	-2.872783515	2.378973756	4.576116511	140.3715873
20130728	2013.5712	-2.621403548	3.791060715	1.166432314	124.662683
20130729	2013.5740	-2.717760313	3.649046382	0.5039759753	126.6782416
20130730	2013.5767	-2.207161791	4.954292617	-0.408283477	114.0132079
20130731	2013.5795	-1.893161078	4.926649867	-1.338819915	111.0202431
20130801	2013.5822	-1.215299886	0.7039674173	-2.309606584	149.9182572
20130802	2013.5849	-1.159791653	-0.4208499355	-1.746502996	199.9441558
20130803	2013.5877	-0.6807490575	-1.295958346	-2.597279253	242.287673
20130804	2013.5904	-0.1947026625	0.07564218405	-2.467835122	158.7688006
20130805	2013.5932	0.3005740666	-4.903044593	-3.352001931	273.5080448
20130806	2013.5959	0.7649561369	-3.784809505	-5.215152342	281.42625
20130807	2013.5987	1.155723261	-4.439832124	-6.788114523	284.5907379
20130808	2013.6014	1.430155153	-4.943005985	-8.307176927	286.1366915
20130809	2013.6041	1.555623519	-5.255600168	-9.665763417	286.4884116
20130810	2013.6069	1.557823704	-5.34270673	-10.74672819	286.2556013
20130811	2013.6096	1.270955741	-5.194294414	-12.26963322	283.7491672
20130812	2013.6123	2.30700454	-4.842493957	-7.591695741	295.4735199
20130813	2013.6151	0.763026684	-4.32902085	-8.138365794	279.9961941
20130814	2013.6178	0.7699809426	-3.69559058	-7.978861665	281.7692732
20130815	2013.6205	0.7248316877	-2.966248925	-7.836863369	283.7316863
20130816	2013.6233	0.6269293965	-2.642655017	-5.760637419	283.3458271
20130817	2013.6260	0.4734930417	-1.492610068	-6.749209642	287.6003222
20130818	2013.6288	0.2622117844	-0.5742622932	-5.755251247	294.541738
20130819	2013.6315	0.9634644599	-0.2503006569	-2.256541011	345.4369307
20130820	2013.6342	-0.03230001187	0.2934003426	-2.05531466	96.28231009
20130821	2013.6370	-1.402862785	0.6356406376	-0.6090088266	155.6246009
20130822	2013.6397	-1.003542767	0.8540642703	3.142138178	139.6005817
20130823	2013.6425	-1.30499873	0.9705419736	-2.349534	143.3614108
20130824	2013.6452	-0.08788704165	2.593981749	1.129999641	91.94050365
20130825	2013.6479	-0.230787754	0.9847373141	1.228083826	103.1900562
20130826	2013.6507	-0.4348299702	0.8275000664	0.9999550249	117.7207696
20130827	2013.6534	-0.6898504989	0.9908878914	0.4225080628	124.8454156
20130828	2013.6562	-0.9807912472	0.7863521769	-0.4397891793	141.2790058
20130829	2013.6589	-1.396655984	-1.258810788	-4.756744667	222.0284451
20130830	2013.6616	-1.446642116	0.7399596349	-3.073831494	152.9101871
20130831	2013.6644	-0.1116380381	0.7609068943	-3.501542565	98.34671924
20130901	2013.6671	-2.194202367	0.8108658508	-3.436066321	159.7182456
20130902	2013.6698	-2.432571337	0.8896570038	-3.842711066	159.9111697
20130903	2013.6726	-2.616586432	0.9971008529	-3.534300466	159.1396904
20130904	2013.6753	-2.746345874	1.181736703	-7.247832951	156.7180706
20130905	2013.6781	-2.825229818	1.277400044	-2.905910995	155.6703607
20130906	2013.6808	-2.890771318	1.489553572	-8.425987699	152.7389023
20130907	2013.6835	-2.801949734	1.710625148	0.4704776966	148.5954158
20130908	2013.6863	-2.652365029	1.96234563	-1.428290649	143.5042053
20130909	2013.6890	-2.69939918	2.237618384	-0.07963949651	140.3435774
20130910	2013.6918	-2.396330268	2.557863913	0.9660064389	133.1325079
20130911	2013.6945	-2.051264255	2.518795778	2.277906796	129.1587828
20130912	2013.6972	-2.111595691	3.030450757	2.454645395	124.8684987
20130913	2013.7000	-2.092540151	1.726023071	3.425811827	140.4826242
20130914	2013.7027	-1.427770501	3.345824253	4.31468279	113.1094969
20130915	2013.7055	-1.240947511	2.321799941	5.238772258	118.1234566
20130916	2013.7082	-0.9061702075	2.272532002	5.819969868	111.7395998
20130917	2013.7109	-0.09976393643	3.142041232	6.325423854	91.81860529
20130918	2013.7137	0.05953009421	2.121372583	6.568613631	88.39258399
20130919	2013.7164	0.0319198359	3.529977512	6.509425726	89.4819168
20130920	2013.7192	-0.01371992923	1.769316834	6.10379611	90.4442835
20130921	2013.7219	-0.3058220135	2.929989244	4.699078621	95.95875614
20130922	2013.7247	-0.0646470732	1.494638503	4.437923923	92.47665053
20130923	2013.7274	0.1729853452	0.8642556397	3.653550973	78.68151208
20130924	2013.7301	0.4014450162	0.4760007754	3.131550347	49.85670388
20130925	2013.7329	0.615421284	0.1483345312	2.056458352	13.55148022
20130926	2013.7356	0.8097127807	-0.09860938883	1.350838606	353.0565302
20130927	2013.7384	0.9795552905	-0.2601771252	0.6633125764	345.1252604
20130928	2013.7411	1.120293886	-0.3467773375	-0.1425334259	342.8005391
20130929	2013.7438	1.227810812	-0.3717955569	-0.1939543011	343.1530702
20130930	2013.7466	1.29963877	-0.3486278502	-0.6955598663	344.983931
20131001	2013.7493	1.504502772	-0.2909952551	-0.9049188297	349.0532361
20131002	2013.7521	1.3815504	0.564690857	-0.992094393	22.23165428
20131003	2013.7548	1.262339601	-0.153536367	-0.9568560715	353.0652674
20131004	2013.7575	1.796543054	-0.1086270693	-2.233244351	356.5398522
20131005	2013.7603	1.714752231	-0.1025469521	-0.551133689	356.5776291
20131006	2013.7630	0.4954936704	-0.1136384961	1.323605872	347.0829387
20131007	2013.7658	0.7296156183	-0.1600844279	0.2327521493	347.6248694
20131008	2013.7685	1.042642699	-0.2401580271	1.11487782	347.028959
20131009	2013.7712	0.9584184607	-1.332285431	0.8687243554	305.7304558
20131010	2013.7740	0.950846305	-0.07694048744	0.6494025334	355.3738251
20131011	2013.7767	0.9295049924	-0.01625279575	0.5986454414	358.9982607
20131012	2013.7795	0.9295965901	0.04325466215	0.323597591	2.664083905
20131013	2013.7822	0.9560274365	0.08362612019	1.120875702	4.999081541
20131014	2013.7849	0.6201899633	0.08686976095	3.354909366	7.973521564
