# YYYYMMDD	YYYY.DECM	N_filt(mm)	E_filt(mm)	U_filt(mm)	Azimuth(deg)
20120401	2012.2500	0.1872678995	-0.2526147537	-0.3884038783	306.550211
20120402	2012.2527	0.03477220155	-0.0516593419	-1.295365716	303.9447248
20120403	2012.2555	-0.1210615083	0.1299233247	-2.172190172	132.9778306
20120404	2012.2582	-0.278258986	0.2755895616	-2.989205494	135.2761505
20120405	2012.2609	-0.4339198746	0.3722085028	-3.720375308	139.3776134
20120406	2012.2637	-0.584128133	0.4113643821	-4.344700137	144.8453934
20120407	2012.2664	-0.7239137791	0.3902589471	-4.847031247	151.6710752
20120408	2012.2691	-0.8473229492	0.3121291447	-5.218363621	159.7776691
20120409	2012.2719	-0.947657214	0.1861178291	-5.455747251	168.8886549
20120410	2012.2746	-1.017922447	0.02656583494	-5.56196551	178.5050288
20120411	2012.2773	-1.051487867	-0.1482615296	-5.545100594	188.02589
20120412	2012.2801	-1.042903068	-0.3179402764	-5.41805616	196.9544095
20120413	2012.2828	-0.9887656146	-0.4620017804	-5.198044359	205.0443827
20120414	2012.2855	-0.8884928327	-0.5621827365	-4.905979548	212.3230716
20120415	2012.2883	-0.7448469091	-0.6045507739	-4.565675807	219.0643155
20120416	2012.2910	-0.5640975392	-0.5812335089	-4.202745975	225.8571718
20120417	2012.2937	-0.3557717963	-0.4915101345	-3.843156557	234.1016984
20120418	2012.2964	-0.132017748	-0.3420968681	-3.511485927	248.8980243
20120419	2012.2992	0.09332672104	-0.1465601511	-3.22902423	302.48821
20120420	2012.3019	0.3058362592	0.07609033445	-3.011911832	13.97121004
20120421	2012.3046	0.4916549763	0.3034581864	-2.869533508	31.68362181
20120422	2012.3074	0.6386225915	0.5121946803	-2.803380612	38.73067015
20120423	2012.3101	0.7373122245	0.6804799365	-2.80657187	42.70452401
20120424	2012.3128	0.7819265199	0.7902235065	-2.864174188	45.30237439
20120425	2012.3156	0.7709812941	0.8287261836	-2.954375201	47.06731706
20120426	2012.3183	0.7076855764	0.7896567591	-3.050441626	48.13349812
20120427	2012.3210	0.5999249334	0.6733172027	-3.123286407	48.29899488
20120428	2012.3238	0.4597828664	0.4862672763	-3.144389029	46.60356055
20120429	2012.3265	0.3025898891	0.240440291	-3.088769821	38.47092836
20120430	2012.3292	0.14555816	-0.04809295166	-2.937699845	341.7162548
20120501	2012.3320	0.006127749938	-0.3605552181	-2.680825968	270.9736662
20120502	2012.3347	-0.09979239657	-0.6769475616	-2.317416209	261.6141253
20120503	2012.3374	-0.1594746207	-0.97747039	-1.856511055	260.7338147
20120504	2012.3402	-0.1647083688	-1.243793688	-1.315918407	262.456543
20120505	2012.3429	-0.1126645679	-1.460121864	-0.7201900777	265.587739
20120506	2012.3456	-0.006202732441	-1.614024201	-0.09790961757	269.7798121
20120507	2012.3484	0.1463906524	-1.697012527	0.5212539893	274.930343
20120508	2012.3511	0.3321793609	-1.704848456	1.109249045	281.0255938
20120509	2012.3538	0.5347704975	-1.637565313	1.641704205	288.0851936
20120510	2012.3566	0.7357987402	-1.499201016	2.099118599	296.1415235
20120511	2012.3593	0.9165684589	-1.297257995	2.467146116	305.2428463
20120512	2012.3620	1.059717271	-1.041933713	2.73612824	315.4848086
20120513	2012.3648	1.150763977	-0.7451962813	2.900164984	327.0742557
20120514	2012.3675	1.179411299	-0.4198035127	2.956075534	340.4071554
20120515	2012.3702	1.140492365	-0.07836937358	2.902577787	356.0690776
20120516	2012.3730	1.034478177	0.2674336468	2.739914882	14.49477731
20120517	2012.3757	0.8675015799	0.6074765819	2.470015645	35.0020136
20120518	2012.3784	0.6508989531	0.9335496393	2.097143539	55.11462909
20120519	2012.3812	0.4003126152	1.239498178	1.628883351	72.10143943
20120520	2012.3839	0.1344253219	1.521113198	1.077225867	84.94972057
20120521	2012.3866	-0.1265818894	1.775785113	0.4594427167	94.07727343
20120522	2012.3893	-0.3627363504	2.001966235	-0.2015691663	100.2700046
20120523	2012.3921	-0.5560119002	2.198537011	-0.8777223588	104.1925665
20120524	2012.3948	-0.6919512809	2.36420594	-1.537057182	106.3135972
20120525	2012.3976	-0.7610201132	2.497073608	-2.145873198	106.9493755
20120526	2012.4003	-0.7595445485	2.594458913	-2.671444314	106.3177319
20120527	2012.4030	-0.6901049843	2.653034081	-3.084970944	104.5806108
20120528	2012.4058	-0.5612993035	2.669257315	-3.364362311	101.8753054
20120529	2012.4085	-0.3868523787	2.640036484	-3.496444993	98.33639232
20120530	2012.4112	-0.1841313243	2.563510495	-3.478262279	94.10837425
20120531	2012.4139	0.02778140628	2.439804605	-3.317256118	89.34761639
20120601	2012.4167	0.2302225132	2.271610391	-3.030288552	84.2129635
20120602	2012.4194	0.4070073754	2.064465389	-2.641629429	78.8472185
20120603	2012.4221	0.5461325722	1.826657516	-2.180182978	73.35443
20120604	2012.4249	0.6408877374	1.568743984	-1.676332764	67.77823801
20120605	2012.4276	0.6902316594	1.302737796	-1.158839988	62.0839432
20120606	2012.4303	0.6984031389	1.041061451	-0.6522136875	56.14404719
20120607	2012.4331	0.6738567861	0.7953908106	-0.1748702412	49.72865811
20120608	2012.4358	0.6277106169	0.5755179741	0.2617663041	42.51622865
20120609	2012.4385	0.5719493058	0.3883581746	0.6532458179	34.17681975
20120610	2012.4413	0.5176448714	0.2372144645	1.001299247	24.61995756
20120611	2012.4440	0.4734420808	0.1213949408	1.312463954	14.38134184
20120612	2012.4467	0.4445096966	0.03624838568	1.596333925	4.661977306
20120613	2012.4495	0.4320832945	-0.02635925032	1.863662669	356.5089962
20120614	2012.4522	0.4336354925	-0.07716345046	2.12456625	349.9100913
20120615	2012.4549	0.4436215698	-0.1283114951	2.387051836	343.8682075
20120616	2012.4577	0.4546689351	-0.1920044509	2.656024326	337.105906
20120617	2012.4604	0.459013008	-0.2791230468	2.932834633	328.6964675
20120618	2012.4631	0.4499443793	-0.3979738741	3.215360476	318.5073785
20120619	2012.4658	0.4230357623	-0.5532650504	3.498556234	307.4021365
20120620	2012.4686	0.3769599857	-0.7453980589	3.775365139	296.8264698
20120621	2012.4713	0.3137791535	-0.9701438461	4.037856537	287.9230591
20120622	2012.4740	0.23866881	-1.218743633	4.278432316	281.0801169
20120623	2012.4768	0.1591296972	-1.47843673	4.49093294	276.1433093
20120624	2012.4795	0.08381870848	-1.733380994	4.671468182	272.7684164
20120625	2012.4822	0.02118490786	-1.965902042	4.818819814	270.6174055
20120626	2012.4850	-0.02188024218	-2.157979876	4.934324409	269.4190851
20120627	2012.4877	-0.04117632298	-2.292855978	5.021231951	268.9711626
20120628	2012.4904	-0.0359437681	-2.356626758	5.083629574	269.1261804
20120629	2012.4932	-0.00911976636	-2.339683231	5.125106969	269.77667
20120630	2012.4959	0.03293930752	-2.23785913	5.147408888	270.8432823
20120701	2012.4986	0.08123142432	-2.053159613	5.149346967	272.2656746
20120702	2012.5014	0.1252640301	-1.793964582	5.126205723	273.9942094
20120703	2012.5041	0.1544102795	-1.474640298	5.069779987	275.9776845
20120704	2012.5068	0.1592455966	-1.114553156	4.969058063	278.1312972
20120705	2012.5096	0.1326456326	-0.7365546606	4.811459319	280.208931
20120706	2012.5123	0.07048039509	-0.3650816965	4.584467073	280.9267435
20120707	2012.5150	-0.02816436116	-0.02406826911	4.277456782	220.5160316
20120708	2012.5178	-0.1611995949	0.2651230108	3.883491193	121.3003594
20120709	2012.5205	-0.3240565473	0.4855633762	3.400848378	123.7184565
20120710	2012.5232	-0.5103597903	0.6262616573	2.8340838	129.1776448
20120711	2012.5260	-0.7125983037	0.6831870057	2.194497588	136.2071297
20120712	2012.5287	-0.92269226	0.6597122806	1.499955926	144.4357532
20120713	2012.5314	-1.132419892	0.5663988248	0.7740789577	153.4273041
20120714	2012.5342	-1.333728563	0.420069254	0.04484805183	162.5177317
20120715	2012.5369	-1.518987388	0.2421741819	-0.6572916647	170.9414949
20120716	2012.5396	-1.681235917	0.05656605117	-1.30173196	178.0729808
20120717	2012.5423	-1.814451374	-0.1130790538	-1.860258019	183.566138
20120718	2012.5451	-1.913818567	-0.2458597899	-2.309654592	187.3204399
20120719	2012.5478	-1.975964634	-0.3259229665	-2.63410782	189.3662462
20120720	2012.5505	-1.999121294	-0.3441260741	-2.827127042	189.7670978
20120721	2012.5533	-1.983191821	-0.2988985879	-2.892714318	188.5708782
20120722	2012.5560	-1.929719256	-0.1962132178	-2.845542532	185.8058624
20120723	2012.5587	-1.841770614	-0.04867942821	-2.709982986	181.5140195
20120724	2012.5615	-1.723761594	0.1261251667	-2.517957127	175.8152072
20120725	2012.5642	-1.581241867	0.3078741553	-2.305753613	168.9821288
20120726	2012.5669	-1.420646307	0.475982862	-2.110120981	161.4767446
20120727	2012.5697	-1.249003525	0.6120618131	-1.964096379	153.8932933
20120728	2012.5724	-1.073590812	0.702032626	-1.893137879	146.8188938
20120729	2012.5751	-0.9015396122	0.7376463195	-1.91214635	140.7097175
20120730	2012.5779	-0.739424706	0.7172217956	-2.023851871	135.8732624
20120731	2012.5806	-0.5928968142	0.6455353047	-2.21880928	132.5661572
20120801	2012.5833	-0.4664186684	0.5329204596	-2.476959588	131.1928215
20120802	2012.5861	-0.363131715	0.3937544291	-2.770445598	132.6831445
20120803	2012.5888	-0.2848378516	0.2445835082	-3.067186964	139.3480956
20120804	2012.5915	-0.2320583265	0.1021640885	-3.334661136	156.2384211
20120805	2012.5943	-0.2041357323	-0.01833662083	-3.54339718	185.132854
20120806	2012.5970	-0.1993571146	-0.1048042571	-3.669822124	207.7314052
20120807	2012.5997	-0.2150822053	-0.1492062778	-3.698240488	214.74972
20120808	2012.6025	-0.2478626806	-0.1481449056	-3.621838103	210.866315
20120809	2012.6052	-0.2935432697	-0.1029238225	-3.442694583	199.321979
20120810	2012.6079	-0.3473448035	-0.01914144478	-3.170899522	183.15426
20120811	2012.6107	-0.4039416423	0.09413915205	-2.822987481	166.8813
20120812	2012.6134	-0.4575596077	0.2255407057	-2.419978361	153.7603476
20120813	2012.6161	-0.5021290862	0.3626880729	-1.98529341	144.1594009
20120814	2012.6189	-0.5315248108	0.4935053735	-1.542743155	137.1241864
20120815	2012.6216	-0.5399096469	0.6073153669	-1.114718191	131.6374267
20120816	2012.6243	-0.5221785383	0.6956120903	-0.7206859903	126.8946378
20120817	2012.6270	-0.47447306	0.7524580897	-0.3760847156	122.2340593
20120818	2012.6298	-0.3947092802	0.7745385369	-0.09168452894	117.0036518
20120819	2012.6325	-0.2830351346	0.7609588637	0.1265465535	110.402452
20120820	2012.6352	-0.142115798	0.7128907324	0.2770880934	101.2741978
20120821	2012.6380	0.02284864315	0.63315939	0.3621142341	87.93328029
20120822	2012.6407	0.2044297713	0.5258383673	0.3865034786	68.75545059
20120823	2012.6434	0.3935943151	0.3958897481	0.3568048704	45.1665876
20120824	2012.6462	0.580568581	0.2488670013	0.280343346	23.20291715
20120825	2012.6489	0.7558137684	0.09068434936	0.1646141157	6.841779281
20120826	2012.6516	0.9109578356	-0.07254917278	0.01706629306	355.446544
20120827	2012.6544	1.039542887	-0.2346398133	-0.1547076569	347.280662
20120828	2012.6571	1.13749103	-0.3893898324	-0.3424771248	341.102723
20120829	2012.6598	1.20324976	-0.5306961611	-0.5367859026	336.2000086
20120830	2012.6626	1.237635693	-0.6527164747	-0.726543362	332.1932916
20120831	2012.6653	1.243442986	-0.7501246836	-0.8990419614	328.8989217
20120901	2012.6680	1.224911049	-0.8184334325	-1.040542518	326.2508396
20120902	2012.6708	1.187150814	-0.8543259946	-1.137408552	324.2595473
20120903	2012.6735	1.135613704	-0.855935563	-1.177613111	322.9939101
20120904	2012.6762	1.075658159	-0.8230373606	-1.152344119	322.5786735
20120905	2012.6790	1.012231182	-0.7571549306	-1.057419132	323.2032934
20120906	2012.6817	0.9496503487	-0.6615993052	-0.8942671576	325.1359707
20120907	2012.6844	0.8914626469	-0.5414530014	-0.6703140632	328.7265098
20120908	2012.6872	0.8403710432	-0.4034956589	-0.3987025146	334.3524804
20120909	2012.6899	0.7982368394	-0.2560579559	-0.09737173616	342.2148279
20120910	2012.6926	0.7661645519	-0.1087826304	0.2124052864	351.9189655
20120911	2012.6954	0.7446537274	0.0277389268	0.5078883503	2.13332568
20120912	2012.6981	0.7337730336	0.142489204	0.7669793962	10.98932856
20120913	2012.7008	0.7332970568	0.2247217756	0.9703988872	17.03788992
20120914	2012.7036	0.7427593284	0.2648074468	1.103742415	19.62209183
20120915	2012.7063	0.7614103911	0.2551553987	1.159214217	18.52645924
20120916	2012.7090	0.7881077304	0.1910944767	1.136807332	13.62960803
20120917	2012.7117	0.8211901693	0.07157396911	1.04469028	4.981244583
20120918	2012.7145	0.858397446	-0.1004571968	0.8986140774	353.3251074
20120919	2012.7172	0.896884742	-0.3180962541	0.7202864293	340.4720363
20120920	2012.7199	0.9333553402	-0.570986744	0.5348340171	328.5434943
20120921	2012.7227	0.9643017927	-0.8462153898	0.3676340215	318.7316868
20120922	2012.7254	0.9863166619	-1.129477621	0.2409131379	311.1290966
20120923	2012.7281	0.9964153477	-1.40634702	0.1705785018	305.3180732
20120924	2012.7309	0.9923117571	-1.663481305	0.1637471144	300.8172236
20120925	2012.7336	0.9726032167	-1.889618886	0.2173646858	297.2352728
20120926	2012.7363	0.936845292	-2.076257431	0.3181590277	294.2857662
20120927	2012.7391	0.8855184668	-2.21795568	0.4439887985	291.7643477
20120928	2012.7418	0.8199023846	-2.312255199	0.5664611504	289.5239934
20120929	2012.7445	0.7418824304	-2.359269985	0.654523073	287.4559754
20120930	2012.7473	0.6537210359	-2.361033401	0.6785916373	285.4763032
20121001	2012.7500	0.5578315583	-2.320723021	0.6146918127	283.5157616
20121002	2012.7527	0.4565915758	-2.241901556	0.4480330668	281.5115718
20121003	2012.7555	0.3522197758	-2.127909695	0.1754914907	279.3986008
20121004	2012.7582	0.246717977	-1.981517752	-0.1934084281	277.0973489
20121005	2012.7609	0.1418594419	-1.80488658	-0.6371904979	274.494062
20121006	2012.7637	0.03919877378	-1.599815217	-1.124693569	271.403584
20121007	2012.7664	-0.05991216636	-1.368185061	-1.618542944	267.4926472
20121008	2012.7691	-0.1543026691	-1.112470722	-2.079304922	262.1033047
20121009	2012.7719	-0.2429451173	-0.8361866769	-2.469755816	253.7993409
20121010	2012.7746	-0.324889894	-0.5441682439	-2.758728521	239.1611333
20121011	2012.7773	-0.3991754605	-0.2426250449	-2.924089653	211.291884
20121012	2012.7801	-0.4647333719	0.06105887123	-2.954542899	172.5150808
20121013	2012.7828	-0.5203191797	0.3587706115	-2.850134321	145.4129504
20121014	2012.7855	-0.5644996838	0.6423152149	-2.621519751	131.3106704
20121015	2012.7883	-0.59571669	0.9041803252	-2.288204001	123.3787784
20121016	2012.7910	-0.6124315025	1.138304273	-1.876050376	118.2811807
20121017	2012.7937	-0.613337586	1.340720799	-1.41439058	114.5826041
20121018	2012.7964	-0.5976150894	1.509967912	-0.9330680499	111.5926682
20121019	2012.7992	-0.5651912003	1.647188695	-0.4597396755	108.938363
20121020	2012.8019	-0.5169641962	1.755906682	-0.01772726429	106.4051876
20121021	2012.8046	-0.4549474098	1.841509542	0.3753687627	103.877126
20121022	2012.8074	-0.3822930349	1.910510718	0.7081999827	101.315437
20121023	2012.8101	-0.30316474	1.969681489	0.9753865702	98.7500501
20121024	2012.8128	-0.2224420443	2.02516252	1.176584552	96.2681901
20121025	2012.8156	-0.145257733	2.081672805	1.315151494	93.99159092
20121026	2012.8183	-0.07639381795	2.141926376	1.396683817	92.04264202
20121027	2012.8210	-0.01959527471	2.206338628	1.427668826	90.50885073
20121028	2012.8238	0.02310012561	2.273058457	1.414428323	89.41774742
20121029	2012.8265	0.05189016692	2.338308961	1.362452069	88.72873956
20121030	2012.8292	0.06947018912	2.396968633	1.276143435	88.3398887
20121031	2012.8320	0.08093705409	2.443287414	1.158932088	88.10269704
20121101	2012.8347	0.09329855115	2.47161509	1.01365568	87.83822473
20121102	2012.8374	0.1146152167	2.477025816	0.8430890842	87.35073916
20121103	2012.8402	0.1528613162	2.45574991	0.6505185759	86.43814592
20121104	2012.8429	0.214642173	2.405367872	0.4403102034	84.90073709
20121105	2012.8456	0.3039434803	2.324774633	0.2184715831	82.55133834
20121106	2012.8484	0.4211065725	2.213970934	-0.006783019224	79.23074113
20121107	2012.8511	0.5622086223	2.073769166	-0.2244991509	74.8314459
20121108	2012.8538	0.7189715185	1.905506375	-0.4205988019	69.32787808
20121109	2012.8566	0.8792378503	1.71084052	-0.5778403889	62.80039065
20121110	2012.8593	1.027962781	1.491676589	-0.6763230422	55.42801162
20121111	2012.8620	1.148604248	1.250236683	-0.6946541795	47.42601713
20121112	2012.8648	1.22476316	0.9892573142	-0.6117607353	38.92826642
20121113	2012.8675	1.241920101	0.712266915	-0.409187063	29.83516452
20121114	2012.8702	1.189113302	0.4238691636	-0.07362236478	19.61902509
20121115	2012.8730	1.06038999	0.1299428211	0.4006567069	6.98633549
20121116	2012.8757	0.855849034	-0.1623264839	1.009759534	349.2604381
20121117	2012.8784	0.5821048679	-0.4446436345	1.738880504	322.6254236
20121118	2012.8811	0.2520612818	-0.7080528272	2.561976347	289.5953327
20121119	2012.8839	-0.1160200492	-0.9436083175	3.442584883	262.9904582
20121120	2012.8866	-0.5000673695	-1.143181311	4.335819829	246.3737545
20121121	2012.8893	-0.8761882032	-1.300273952	5.191413889	236.0259824
20121122	2012.8921	-1.220870014	-1.410699856	5.957519431	229.1259182
20121123	2012.8948	-1.513141859	-1.473016371	6.584861988	224.2301537
20121124	2012.8975	-1.73646172	-1.488643345	7.03080497	220.6060036
20121125	2012.9003	-1.880136672	-1.46165641	7.262913299	217.8622195
20121126	2012.9030	-1.940144266	-1.39828821	7.261669851	215.7808025
20121127	2012.9057	-1.919295603	-1.306208541	7.022082747	214.2378964
20121128	2012.9085	-1.826751335	-1.193685622	6.554021575	213.1624977
20121129	2012.9112	-1.676958212	-1.06875199	5.881239334	212.5100065
20121130	2012.9139	-1.48811426	-0.938499853	5.039171006	212.2381479
20121201	2012.9167	-1.280305877	-0.8086038296	4.071741897	212.2753113
20121202	2012.9194	-1.073499353	-0.6831181855	3.027557855	212.4705174
20121203	2012.9221	-0.885605337	-0.5645375151	1.95595273	212.5158597
20121204	2012.9249	-0.7308452043	-0.4540617004	0.9033820074	211.8519814
20121205	2012.9276	-0.6186135598	-0.3519772251	-0.08945161049	209.6389043
20121206	2012.9303	-0.5529542379	-0.2580595554	-0.9895356556	205.0181055
20121207	2012.9331	-0.5326733467	-0.1719133624	-1.772527613	197.8868069
20121208	2012.9358	-0.552028334	-0.0931950701	-2.42289131	189.5824887
20121209	2012.9385	-0.6018674419	-0.02169979362	-2.933374994	182.0648538
20121210	2012.9413	-0.6710491703	0.04266650173	-3.304030397	176.3619295
20121211	2012.9440	-0.7479482637	0.09997953839	-3.540953184	172.3863074
20121212	2012.9467	-0.8218573727	0.1503931583	-3.654898492	169.6300755
20121213	2012.9495	-0.8841208534	0.1941899636	-3.659898543	167.6121546
20121214	2012.9522	-0.9288817176	0.2317644014	-3.571974183	165.9902339
20121215	2012.9549	-0.9533766213	0.2635489305	-3.407988702	164.5472117
20121216	2012.9576	-0.9577722283	0.2899172319	-3.184655798	163.1589592
20121217	2012.9604	-0.9445956714	0.3111047769	-2.917699446	161.7705814
20121218	2012.9631	-0.9178664896	0.3271768359	-2.621173422	160.3812066
20121219	2012.9659	-0.8820790442	0.3380541479	-2.306970494	159.0308195
20121220	2012.9686	-0.8412042845	0.3435866934	-1.984568213	157.7826269
20121221	2012.9713	-0.7978721736	0.3436542567	-1.661055552	156.6978065
20121222	2012.9740	-0.7528609989	0.3382715794	-1.341457348	155.8049115
20121223	2012.9768	-0.7049631493	0.3276822454	-1.029326602	155.0699675
20121224	2012.9795	-0.6512297524	0.3124308513	-0.7275228655	154.3703954
20121225	2012.9822	-0.5875332861	0.2934017387	-0.4390584461	153.463424
20121226	2012.9850	-0.5093421742	0.2718071672	-0.1678877899	151.9136768
20121227	2012.9877	-0.4125814719	0.2491069074	0.0804636996	148.8774165
20121228	2012.9904	-0.2944561518	0.2268520093	0.2985064924	142.3889787
20121229	2012.9932	-0.154131652	0.2064678676	0.4766896571	126.7419432
20121230	2012.9959	0.006804794907	0.1890166884	0.6036615197	87.93818354
20121231	2012.9986	0.1841454203	0.1749940937	0.6669432262	43.54034732
20130101	2013.0014	0.3711404278	0.1642109929	0.6540223134	23.86698278
20130102	2013.0041	0.5588487802	0.1557909091	0.5537868101	15.57693564
20130103	2013.0068	0.7367416645	0.1482813487	0.3581366152	11.37968454
20130104	2013.0096	0.8935210049	0.1398459757	0.06356636376	8.895263245
20130105	2013.0123	1.0180908	0.1284847576	-0.3274872013	7.192797585
20130106	2013.0151	1.10059351	0.1122290783	-0.8057233776	5.822406612
20130107	2013.0178	1.133404969	0.08927424227	-1.354644419	4.503684467
20130108	2013.0205	1.111973623	0.05803403156	-1.950923721	2.987562789
20130109	2013.0233	1.035396629	0.01712733239	-2.565506031	0.9476893595
