# YYYYMMDD	YYYY.DECM	N_filt(mm)	E_filt(mm)	U_filt(mm)	Azimuth(deg)
20130101	2013.0014	2.05624644	0	-5.29142898	0
20130102	2013.0041	1.166476492	0.5835153121	-5.439320361	26.57593745
20130103	2013.0068	4.004758391	-1.01602879	-1.198714816	345.7641166
20130104	2013.0096	4.311550023	0.03118863634	-0.8626463818	0.4144556026
20130105	2013.0123	0.5923789557	0.3547785799	1.322811165	30.91759286
20130106	2013.0151	0.5636054868	0.5645497	1.406574385	45.04795388
20130107	2013.0178	0.4931409302	0.6722097962	0.0383003412	53.73579431
20130108	2013.0205	0.3670357793	0.8158683579	2.048431971	65.77838598
20130109	2013.0233	0.2251838919	0.5704272776	1.931973815	68.45770059
20130110	2013.0260	0.03774010904	0.5479592135	1.554752568	86.06003605
20130111	2013.0288	1.118915002	0.4132379696	1.592615899	20.27020918
20130112	2013.0315	0.1466498471	0.09850256355	1.400849618	33.88868193
20130113	2013.0342	0.7313560428	0.2439769449	1.455665963	18.44845684
20130114	2013.0370	0.2022033509	-0.04470464484	0.6658986939	347.5331593
20130115	2013.0397	-0.1286502285	-0.1845999843	0.606174947	235.1268373
20130116	2013.0425	-0.3163303275	-1.205705866	0.4962144675	255.2991413
20130117	2013.0452	-0.686201171	0.4655747624	0.4802077704	145.8438358
20130118	2013.0479	-0.3061230069	-0.4976159664	0.4863349297	238.4010339
20130119	2013.0507	0.06873052569	-0.56720192	0.8323073262	276.9091144
20130120	2013.0534	-1.256656361	-0.5825586852	1.146631083	204.8714181
20130121	2013.0562	-1.342116318	-0.592085842	1.543133783	203.8050752
20130122	2013.0589	-1.376716012	-0.5844254544	1.188874431	203.0015579
20130123	2013.0616	-1.371325144	-0.5631223889	0.02197660195	202.3250656
20130124	2013.0644	-1.336813416	-0.5307341192	2.716730831	201.6537882
20130125	2013.0671	-1.284050527	-0.4865780497	2.923054557	200.7536999
20130126	2013.0699	-1.224024003	-0.4318222022	3.298169871	199.4322811
20130127	2013.0726	-1.164527572	-0.3552901406	3.368293137	196.9666226
20130128	2013.0753	-1.09952588	-0.09580140148	3.289393039	184.9795906
20130129	2013.0781	-1.022172395	0.1220075588	3.224520453	173.1933194
20130130	2013.0808	-0.9263340647	0.04121640639	3.077949322	177.4523558
20130131	2013.0836	-0.6614463868	-0.06475964131	2.898789281	185.5917853
20130201	2013.0863	-0.6810779351	0.01416686593	-0.3567722846	178.8083822
20130202	2013.0890	-0.5194301623	0.1280388713	4.88906534	166.1527195
20130203	2013.0918	-0.2238906348	0.1350248669	3.779199053	148.9064923
20130204	2013.0945	0.03252282545	-0.4459479873	-1.29682166	274.1711758
20130205	2013.0973	0.2926562499	0.9193378177	0.4926533418	72.34197164
20130206	2013.1000	0.5261584115	0.2374641418	0.8836700082	24.29045726
20130207	2013.1027	0.7070569725	0.2046418607	0.06397804618	16.14190681
20130208	2013.1055	0.8121575377	0.1337824368	-1.948135293	9.354031008
20130209	2013.1082	0.9448900319	0.8243373832	-0.497490083	41.10197201
20130210	2013.1110	0.7636210586	-0.06142889823	-0.5852672412	355.4007897
20130211	2013.1137	1.633357663	-0.3532733429	-3.248679642	347.7956798
20130212	2013.1164	0.4898144835	-0.8094691085	-2.736390241	301.1783772
20130213	2013.1192	0.2808334129	-0.6815014952	-2.722460562	292.3955994
20130214	2013.1219	-0.03285481593	-1.056728679	0.4558445181	268.2191871
20130215	2013.1247	0.04989049851	-0.5097303102	3.486448061	275.5900916
20130216	2013.1274	-0.4560857068	0.9209383522	2.459793873	116.3464636
20130217	2013.1301	-0.7104118292	0.9001224326	-1.221188596	128.2818827
20130218	2013.1329	-0.8807184472	-0.0270010617	2.772599809	181.7560237
20130219	2013.1356	-1.014067522	-0.9313168127	0.8744532847	222.5642808
20130220	2013.1384	-1.067912982	-0.5440220286	2.768472265	206.9954502
20130221	2013.1411	-1.027620473	-0.3154987501	2.598370283	197.0674678
20130222	2013.1438	-0.8949420072	0.3243460936	2.094737853	160.0784022
20130223	2013.1466	-0.8441538214	1.198642832	1.950739671	125.1554286
20130224	2013.1493	-0.4322100255	1.380870012	1.423934351	107.3800336
20130225	2013.1521	0.1163986828	1.921146219	1.415979055	86.53279356
20130226	2013.1548	0.04749403998	2.398127352	0.2868344924	88.86542625
20130227	2013.1575	0.3918091034	2.80418823	0.1871238326	82.04596583
20130228	2013.1603	0.5078911204	3.1142608	-1.084257647	80.73742706
20130301	2013.1630	0.8332177179	3.303277006	-1.64079489	75.84304161
20130302	2013.1658	0.9411842843	3.346168793	-1.995934469	74.29018303
20130303	2013.1685	1.029904806	3.227249902	-0.7075199768	72.30067702
20130304	2013.1712	0.9791840292	2.968434696	-0.4768356112	71.74406271
20130305	2013.1740	1.00246832	2.601313067	-0.4538302782	68.92482808
20130306	2013.1767	0.9273085924	1.809324834	1.37660877	62.86411765
20130307	2013.1795	0.8250755223	1.693989065	2.540500368	64.03110617
20130308	2013.1822	0.7067234886	1.425118818	2.649784059	63.62295898
20130309	2013.1849	0.5768697844	0.6836643963	3.313026116	49.84263211
20130310	2013.1877	1.621531002	0.2505662978	4.971922016	8.784127165
20130311	2013.1904	0.3102452158	-0.3527366653	4.125158846	311.3328479
20130312	2013.1932	-0.9968379788	-0.3819012655	4.442193129	200.9624696
20130313	2013.1959	0.08662203752	-0.58367249	4.533850553	278.4415727
20130314	2013.1986	-0.001684971312	-0.4302316391	4.795251709	269.7756063
20130315	2013.2014	-0.08436325362	-0.8009476029	7.4990702	263.9872457
20130316	2013.2041	-0.2235037343	-0.5892954697	0.4714218679	249.2296267
20130317	2013.2068	0.6077623038	-0.3859419797	1.394025936	327.5835849
20130318	2013.2096	-1.438268057	-0.1146728483	3.667270634	184.558539
20130319	2013.2123	-0.5539945443	-0.06519748195	2.779082585	186.7120457
20130320	2013.2151	-0.715041282	0.2520659661	2.2990512	160.5814542
20130321	2013.2178	0.1353027889	0.09388917544	4.813446578	34.75751541
20130322	2013.2205	-0.976306757	0.09444389434	0.9768284502	174.4746346
20130323	2013.2233	-1.013298744	-0.5156140041	0.1828838644	206.9691301
20130324	2013.2260	-1.049570952	-0.4524290545	-0.6005339654	203.3189874
20130325	2013.2288	-0.9362873357	-0.3959433224	-1.312524033	202.9228483
20130326	2013.2315	-0.9541782143	-0.3535433392	-1.653892288	200.3307402
20130327	2013.2342	-0.7789540637	-1.350692957	-0.7158227766	240.0276508
20130328	2013.2370	-0.8430560809	-0.3405467453	-1.498744848	201.9959089
20130329	2013.2397	0.7340681045	-0.3845096629	-2.209797367	332.3541595
20130330	2013.2425	-0.2381501375	-0.468452373	-3.276142684	243.0522901
20130331	2013.2452	-0.0230960555	-0.5866258251	-3.488941787	267.7453713
20130401	2013.2479	0.2103283556	-0.7309129199	-4.380055345	286.0537637
20130402	2013.2507	0.4586053413	-0.8932121514	-5.052477358	297.1774984
20130403	2013.2534	2.107830281	-1.065447571	-5.670343853	333.1847152
20130404	2013.2562	0.9615053999	-2.319534293	-4.315882761	292.5152386
20130405	2013.2589	1.198652326	-1.40678318	-4.748668087	310.4327212
20130406	2013.2616	1.492040487	-1.448440339	-5.260276324	315.8494942
20130407	2013.2644	1.676386157	-1.691476355	-5.830636383	314.7432796
20130408	2013.2671	1.783800565	-1.672171652	-6.439424022	316.8500272
20130409	2013.2699	1.895208206	-0.8869867389	-7.071006732	334.9196794
20130410	2013.2726	1.029982676	-2.044177592	-9.566901388	296.7417822
20130411	2013.2753	1.759305615	-0.1556213077	-7.779398456	354.9449958
20130412	2013.2781	1.533155891	-0.3838472998	-7.664897357	345.9441203
20130413	2013.2808	1.206149402	-0.5092914406	-7.462772285	337.108305
20130414	2013.2836	0.7961698274	-2.317634474	-7.17193562	288.9589761
20130415	2013.2863	-0.07436993661	-2.348342682	-6.792451502	268.1860996
20130416	2013.2890	-0.06239245047	-2.343933761	-4.943501191	268.4752214
20130417	2013.2918	-0.833438463	-2.296518972	-3.499523776	250.053466
20130418	2013.2945	-1.024852992	-2.198209577	-6.569369111	245.0040458
20130419	2013.2973	-1.8594834	-2.041116838	-3.032955796	227.6660813
20130420	2013.3000	-1.334918874	-1.817352017	-3.781086877	233.7012062
20130421	2013.3027	-0.8100813732	-1.519026377	-6.166926669	241.9294521
20130422	2013.3055	-0.902106861	-0.0120513837	-1.365042789	180.7653776
20130423	2013.3082	-1.518568671	0.1212216173	-0.1886770478	175.4359717
20130424	2013.3110	-1.490289841	1.172901836	0.7026553468	141.7962162
20130425	2013.3137	-1.423053856	0.7356480855	1.402206291	152.6632843
20130426	2013.3164	-1.321910109	0.06933193917	1.874689014	176.9976846
20130427	2013.3192	-1.191907992	1.089349434	2.105656878	137.5741148
20130428	2013.3219	-0.9320457967	1.311122999	2.089548936	125.4081054
20130429	2013.3247	-0.8655262231	0.7837341136	4.921246732	137.8391554
20130430	2013.3274	-0.679245356	2.900667071	4.386073857	103.179404
20130501	2013.3301	0.6210726147	3.520724571	3.656898088	79.99567735
20130502	2013.3329	0.8699863759	0.9840425977	3.572521786	48.52028751
20130503	2013.3356	0.7941452008	1.06477998	2.275933411	53.28330761
20130504	2013.3384	0.8399998385	1.195037276	1.58302308	54.89635526
20130505	2013.3411	0.8027982061	1.33572332	-1.055336567	58.993235
20130506	2013.3438	0.4539857501	2.58980435	0.4281257745	80.0572266
20130507	2013.3466	0.6937034696	1.557797614	-0.0349715932	65.99609304
20130508	2013.3493	0.5760910139	1.741252846	-3.197136121	71.69327636
20130509	2013.3521	1.999397458	2.869054442	-4.141427345	55.12798564
20130510	2013.3548	0.4679037329	1.140888936	-2.303055866	67.70038349
20130511	2013.3575	0.4488002306	0.5888411491	-2.706431718	52.68624239
20130512	2013.3602	0.4621950361	0.1548276933	-2.961390452	18.51999752
20130513	2013.3630	0.5150511021	0.01916648186	-3.318029542	2.131151702
20130514	2013.3657	0.6143313812	-0.4558416468	-3.049120981	323.4241181
20130515	2013.3685	1.406953017	-0.7359633519	-2.795847076	332.3863744
20130516	2013.3712	1.372595166	-0.9680773787	-2.814978335	324.8050731
20130517	2013.3740	1.316017284	-1.144327099	-2.614764284	318.9917996
20130518	2013.3767	1.240859693	-1.256948451	-1.886622188	314.6309544
20130519	2013.3795	1.167626124	1.446485124	-1.901198413	51.08897168
20130520	2013.3822	1.182501286	-1.271419852	-2.360855691	312.9247783
20130521	2013.3849	0.8100379871	-1.291205969	-2.14494934	302.1021019
20130522	2013.3877	0.8308952197	0.3292488991	-1.900123	21.61634431
20130523	2013.3904	0.7181998912	0.4408851202	-1.602346178	31.54473294
20130524	2013.3932	1.034709264	0.6298181567	-1.422298236	31.32849596
20130525	2013.3959	0.476048095	0.6741194875	-1.006044381	54.77111722
20130526	2013.3986	0.4567539809	0.2784268338	-0.6829676349	31.36553449
20130527	2013.4014	0.6506960304	0.7570477083	-0.3856261631	49.32035241
20130528	2013.4041	0.4611014423	1.145271426	-2.461703458	68.06963128
20130529	2013.4068	0.264466098	0.1473294499	3.143148723	29.12141686
20130530	2013.4096	0.06672487439	0.2049092638	2.770641692	71.96312807
20130531	2013.4124	-0.1262254762	0.2117086037	-0.851092227	120.8043567
20130601	2013.4151	-0.3106351402	0.1351614655	-0.7198840983	156.4855037
20130602	2013.4178	-0.4832313315	0	-0.5739013647	180
20130603	2013.4205	-0.6304282574	-0.1003064746	-0.417055326	189.0404641
20130604	2013.4233	-0.7686894453	-0.014387761	0.6932712959	181.0722949
20130605	2013.4260	-0.8974112052	-0.06543242885	-1.921012553	184.1701949
20130606	2013.4288	-0.990025642	0.5436375136	1.548408834	151.2281697
20130607	2013.4315	-1.054702115	0.6619689928	0.2321994133	147.8861393
20130608	2013.4342	-1.10727092	0.05106147511	0.3775087385	177.3596924
20130609	2013.4370	-2.275111235	0.1293444558	0.5058695815	176.7461272
20130610	2013.4397	-1.083665435	0.2801278057	-0.4186193709	165.5063005
20130611	2013.4425	-1.049991431	0.450261173	2.848198639	156.7892011
20130612	2013.4452	-1.002633717	0.8314904082	0.263284593	140.3308703
20130613	2013.4479	-2.275892308	0.7955594412	1.288015899	160.7324489
20130614	2013.4507	-0.7821339357	1.596760582	0.3632195966	116.0967878
20130615	2013.4534	-0.8697345193	2.02237133	-1.178887603	113.2704508
20130616	2013.4562	-0.7464739954	-0.2024016763	0.6374784693	195.170631
20130617	2013.4589	-0.6806411306	0.5311613164	0.3399540066	142.0320994
20130618	2013.4616	0.6411917122	0.4520990286	-1.753424166	35.18735054
20130619	2013.4644	-0.5678746655	0.3749583935	0.6931506575	146.5638671
20130620	2013.4671	-0.5272181892	0.8538886045	0.7751790228	121.6925114
20130621	2013.4699	-0.5012309664	0.6278035247	0.869336208	128.6034556
20130622	2013.4726	-0.4930515591	0.3264230369	0.969597881	146.4935902
20130623	2013.4753	-0.5058185292	1.268702073	0.8517494814	111.7366639
20130624	2013.4781	-0.1594909511	0.3435090539	0.8293621047	114.9054006
20130625	2013.4808	-0.2238201668	-0.4610852675	1.229133945	244.1071206
20130626	2013.4836	-0.34164345	-0.7055113727	3.431907972	244.1614421
20130627	2013.4863	-0.5034319727	-0.9211191921	3.577209908	241.3414637
20130628	2013.4890	-0.6996569067	-1.220960025	3.454618903	240.1856374
20130629	2013.4918	0.2281821962	-1.231164591	3.157894232	280.4999697
20130630	2013.4945	-0.04071289471	-1.384760648	2.780795172	268.3159507
20130701	2013.4973	0.4451863047	-1.474872829	2.417081001	286.7962953
20130702	2013.5000	-0.4914798538	-3.627926735	2.128036905	262.2850352
20130703	2013.5027	-0.5515451361	1.995056051	1.845051714	105.4537776
20130704	2013.5055	-0.8391675915	-1.534430801	1.091704811	241.3261134
20130705	2013.5082	-1.007937144	-1.440072119	0.6218130073	235.0110063
20130706	2013.5110	-1.139392223	-1.540772777	3.513234524	233.5172967
20130707	2013.5137	-1.225816124	-1.318611408	0.6100605433	227.0886517
20130708	2013.5164	-1.267469979	-1.223941197	0.1482474272	223.9990565
20130709	2013.5192	-1.266609382	-1.708178836	0.354268779	233.4431783
20130710	2013.5219	-1.225489926	-1.707864086	0.7141176919	234.3384024
20130711	2013.5247	-1.146367203	-1.674705759	0.5018416895	235.607635
20130712	2013.5274	-0.9983007696	-1.609695258	0.8145694264	238.1936391
20130713	2013.5301	-0.8064056034	-1.515597702	1.499741108	241.9838515
20130714	2013.5329	-0.7242063158	-1.395676053	1.184176395	242.5755244
20130715	2013.5356	-0.5216710281	-1.25423479	1.402554216	247.4162195
20130716	2013.5384	-0.3229738216	-1.095639325	1.630190154	253.5754767
20130717	2013.5411	-0.1235407597	-1.25905566	1.924697355	264.3959762
20130718	2013.5438	0.06844906514	-1.264361925	1.583247574	273.0988104
20130719	2013.5466	0.2448165603	-1.138154706	2.079422602	282.1393316
20130720	2013.5493	0.3973826331	-0.9790964968	2.667383086	292.0905938
20130721	2013.5521	0.5194951871	-0.7747325471	5.270793791	303.8437412
20130722	2013.5548	1.852546543	-0.5341402015	-1.939314	343.9162713
20130723	2013.5575	2.015097414	-0.2422066612	-5.00848413	353.1461559
20130724	2013.5603	1.210914998	-0.1090163926	1.584817922	354.8556376
20130725	2013.5630	0.73661018	0.3142337642	-2.775585872	23.10282298
20130726	2013.5658	0.7297010227	0.6087079474	-4.19255538	39.83446369
20130727	2013.5685	0.1891310131	0.9926673859	-4.110410313	79.21283309
20130728	2013.5712	-0.2262701968	1.158889919	-6.287639418	101.0478619
20130729	2013.5740	0.08939022433	1.418568094	-5.751625056	86.39430802
20130730	2013.5767	-0.6749363956	1.651936243	-6.342927513	112.2235947
20130731	2013.5795	-0.7913376793	1.861594281	-9.740109101	113.0296658
20130801	2013.5822	-0.8289108361	2.044291708	-10.3836022	112.071364
20130802	2013.5849	-0.7968634149	2.196778029	-7.398854296	109.9378293
20130803	2013.5877	-0.7077777262	2.315802746	-7.451348235	106.9947002
20130804	2013.5904	-0.5742343778	2.958139017	-7.338345429	100.9856358
20130805	2013.5932	-0.4088139775	3.727967581	-7.059618102	96.25812684
20130806	2013.5959	0.6476292043	3.59291655	-6.616179353	79.78205986
20130807	2013.5986	0.6144579858	3.353489504	-6.009042279	79.61690167
20130808	2013.6014	0.1176059589	3.029089509	-5.222045522	87.77657864
20130809	2013.6041	0.5517869342	2.607771154	-4.502751013	78.05281478
20130810	2013.6069	0.5085584804	1.999792192	-3.172157181	75.73180799
20130811	2013.6096	0.107734073	2.426684826	-2.203021136	87.45799001
20130812	2013.6123	1.078333343	2.08709548	-0.7366289039	62.676094
20130813	2013.6151	1.233147589	1.916317411	0.741446841	57.23877535
20130814	2013.6178	1.30180292	0.04424112429	3.005656094	1.946419442
20130815	2013.6205	1.31117173	1.400607059	3.674598788	46.88894841
20130816	2013.6233	-0.1803909234	-0.7823363971	3.110587705	257.0156917
20130817	2013.6260	-0.3830432153	0.5092954982	4.492182408	126.9469744
20130818	2013.6288	-0.5979866815	-0.05852527025	5.835984663	185.5897659
20130819	2013.6315	-0.8336925178	-1.062068629	8.537221886	231.8691329
20130820	2013.6342	-0.8906224127	-1.119170311	6.914113108	231.4876433
20130821	2013.6370	-1.179676159	-1.341423295	8.714506063	228.6709159
20130822	2013.6397	-1.306896356	-1.276797719	8.994690203	224.3325654
20130823	2013.6425	-1.377963744	-1.186557736	9.02681834	220.7315777
20130824	2013.6452	-0.5253165123	-1.261933086	9.304245266	247.3990532
20130825	2013.6479	-1.327167898	-3.204811832	8.243273801	247.5047098
20130826	2013.6507	-1.219566184	-1.444843694	7.391024396	229.8328991
20130827	2013.6534	-1.758158554	-1.566771729	7.250570976	221.705624
20130828	2013.6562	-0.8852391814	-1.710793764	4.937598076	242.6409868
20130829	2013.6589	-0.3349089204	-3.029895129	2.252664908	263.6924265
20130830	2013.6616	-0.06493732668	-3.695970884	1.476351765	268.9934304
20130831	2013.6644	-0.01748274839	-2.126728322	1.730258237	269.5290112
20130901	2013.6671	0.3934492962	-1.868725466	-0.03857961928	281.8896389
20130902	2013.6699	0.7710593956	-2.223772798	-0.06284469709	289.1232107
20130903	2013.6726	0.906224998	-2.170205282	-2.762300853	292.6642299
20130904	2013.6753	1.833099853	-2.031607094	-1.536286729	312.0596372
20130905	2013.6781	1.21660627	-1.803435715	-3.877075899	304.0037888
20130906	2013.6808	1.800029435	-1.460170391	-4.363907643	320.9512946
20130907	2013.6836	1.717860018	-1.259072925	-4.581190158	323.7611542
20130908	2013.6863	1.461175584	-0.6291216724	-4.549945815	336.705291
20130909	2013.6890	1.213489709	-0.3042144639	-4.457914614	345.926344
20130910	2013.6918	0.6097936294	0.5062978243	-3.816089424	39.70208014
20130911	2013.6945	0.4750299342	2.637105524	-3.318318278	79.78864095
20130912	2013.6973	0.1379046797	1.275352	-2.64142954	83.82854654
20130913	2013.7000	-0.2826632387	-0.2945887132	-1.714500056	226.1835078
20130914	2013.7027	0.211107844	1.413524044	-0.9401798505	81.50573879
20130915	2013.7055	0.1112479159	1.46460969	-0.911144639	85.65630353
20130916	2013.7082	0.02955611898	0.8064956538	0.7349104033	87.90118725
20130917	2013.7110	-0.03032435511	2.940011117	1.55322769	90.59094877
20130918	2013.7137	-0.06877020082	0.7762198698	2.26507381	95.06297418
20130919	2013.7164	-0.1046833986	0.6496042948	2.821953423	99.15448216
20130920	2013.7192	-0.03632476564	0.5906321845	3.173260806	93.51934365
20130921	2013.7219	-0.06773211263	0.4896461883	4.851208389	97.87567035
20130922	2013.7247	-0.03267158982	0.3792455741	3.079967735	94.9238116
20130923	2013.7274	0.01770748887	0.2536978775	2.594325903	86.00737051
20130924	2013.7301	0.08578795115	0.3026956352	1.793585314	74.17656797
20130925	2013.7329	-0.6952028866	0.0382716616	0.6876756529	176.8489867
20130926	2013.7356	0.2172073121	-0.6304017547	-1.145114375	289.0115844
20130927	2013.7384	0.2730641648	-0.5830671908	-1.193452832	295.0948049
20130928	2013.7411	0.3094913988	-0.4839659144	-3.233603749	302.5985114
20130929	2013.7438	-0.1166461766	-0.2954543729	-3.727301843	248.4557607
20130930	2013.7466	-0.1424983253	-0.3357099528	-4.853630155	247.000303
20131001	2013.7493	-0.1627111692	0.09987177068	-5.196570279	148.4584858
20131002	2013.7521	-0.1776652703	-0.3418646864	-5.260934411	242.5393387
20131003	2013.7548	-0.1876322958	-0.3014090823	-4.975449088	238.0970317
20131004	2013.7575	-0.1928839132	-0.2276957537	-7.118767035	229.7316486
20131005	2013.7603	-1.218891277	-0.1203837506	-0.6301606558	185.6405228
20131006	2013.7630	-0.7335412958	0.009480791367	-2.297579655	179.2595112
20131007	2013.7658	-0.5324559289	0.2384278113	-0.560702215	155.8776985
20131008	2013.7685	-0.6315875212	0.1465731978	0.9786001889	166.9345844
20131009	2013.7712	-0.6068928242	0.1187947354	1.465708269	168.9248115
20131010	2013.7740	-0.5431386742	0.4505570388	2.582609781	140.3228244
20131011	2013.7767	-0.2467339173	0.5503327713	3.495547133	114.1484044
20131012	2013.7795	0.3059839358	0.511493075	4.127994787	59.11141216
20131013	2013.7822	-0.3518057718	0.4779656609	4.438480011	126.3548601
