# YYYYMMDD	YYYY.DECM	N_filt(mm)	E_filt(mm)	U_filt(mm)	Azimuth(deg)
20120401	2012.2500	-0.2557602811	-0.663263002	0	248.9129045
20120402	2012.2527	-0.26088476	-0.6628553299	-1.298567522	248.5165311
20120403	2012.2555	-0.2604873868	-0.5146216162	-1.052446071	243.1527146
20120404	2012.2582	-0.1870265557	-0.3801809996	-0.834590296	243.8055436
20120405	2012.2609	-0.4803413454	-0.2543581723	-1.046894281	207.9028434
20120406	2012.2637	-0.5880034616	-0.1375865571	-0.3777647699	193.1696642
20120407	2012.2664	-0.7949390588	-0.03012698036	-0.3244087875	182.1703841
20120408	2012.2691	-0.8774296684	0.06773577514	0.2822127405	175.5856383
20120409	2012.2719	-0.791284815	0.1555763636	-0.1000196854	168.8768215
20120410	2012.2746	-0.6651383314	0.2333870252	-0.2185944579	160.6647961
20120411	2012.2773	-0.5543394723	0.3015673039	-0.7476415019	151.4532804
20120412	2012.2801	-0.4559964679	0.3606411513	-0.8938869714	141.6600267
20120413	2012.2828	-0.369912973	0.4104602777	-1.367633071	132.0256513
20120414	2012.2855	-0.2916795081	0.4519923786	-1.409676884	122.834943
20120415	2012.2883	-0.2230121604	0.4833913696	-1.740348696	114.7661943
20120416	2012.2910	-0.1661727796	0.5065420251	-1.632787198	108.1622473
20120417	2012.2937	-0.1210274792	0.5195093877	-1.74305938	103.1140038
20120418	2012.2964	-0.08968665225	0.5227280029	-1.334176458	99.73568547
20120419	2012.2992	-0.06920577662	0.5207314338	-1.054667399	97.57030902
20120420	2012.3019	-0.05676577836	0.5066195196	-0.4928860026	96.39321974
20120421	2012.3046	-0.05944455063	0.4907237354	-0.2731655483	96.90695645
20120422	2012.3074	-0.08757129037	0.4888850896	0.1857871438	100.1553773
20120423	2012.3101	-0.03138599932	0.527444401	0.42678382	93.40541534
20120424	2012.3128	0.09474796726	0.5570119298	0.8630549052	80.34636234
20120425	2012.3156	0.104713584	0.5735088685	1.059499723	79.65268127
20120426	2012.3183	-0.06084747947	0.5735726142	1.369441314	96.05557685
20120427	2012.3210	0.01414210022	0.5560247451	1.660759385	88.54303607
20120428	2012.3238	0.084703809	0.5289677293	1.984587858	80.90243889
20120429	2012.3265	0.1515842079	0.496388663	1.919430714	73.01868956
20120430	2012.3292	0.2178538392	0.4485029317	1.863364912	64.09250405
20120501	2012.3320	0.2785259466	0.406969917	1.594423713	55.61267041
20120502	2012.3347	0.2821393181	0.349490089	1.33376588	51.08646235
20120503	2012.3374	0.2339772327	0.3015379679	0.9882147835	52.19046205
20120504	2012.3402	0.1384937308	0.2475153448	0.6813431505	60.7714188
20120505	2012.3429	0.1600608207	0.1990856698	0.3522066517	51.20142768
20120506	2012.3456	0.2018480968	0.1569379184	0.06575836512	37.86524675
20120507	2012.3484	0.2695010472	0.1169993556	-0.1930148929	23.46726599
20120508	2012.3511	0.3530722339	0.09125601837	-0.3999038758	14.49168415
20120509	2012.3538	0.4424281113	0.07219497002	-0.544260561	9.267784271
20120510	2012.3566	0.5360311056	0.06286065396	-0.6139574389	6.688557107
20120511	2012.3593	0.628360956	0.0727821501	-0.6158437579	6.607045826
20120512	2012.3620	0.7182343377	0.08602972439	-0.5500394346	6.830316708
20120513	2012.3648	0.793714757	0.1189300668	-0.4452327623	8.521789044
20120514	2012.3675	0.8537583714	0.1500332777	-0.313820342	9.966974506
20120515	2012.3702	0.8836742912	0.2059568589	-0.1753047749	13.11964447
20120516	2012.3730	0.8848744041	0.3107617181	-0.0467670794	19.3509191
20120517	2012.3757	0.8414517676	0.4590228044	0.05711249265	28.61303697
20120518	2012.3784	0.7539585459	0.5700038899	0.1133043185	37.08982354
20120519	2012.3811	0.6297151093	0.6559436545	0.3842046341	46.16872109
20120520	2012.3839	0.4804327038	0.7211819277	0.2764337378	56.3294762
20120521	2012.3866	0.3255668636	0.7665257248	0.1011157033	66.98758752
20120522	2012.3893	0.1663165478	0.7898637294	-0.1855013416	78.10929659
20120523	2012.3921	0.02767104471	0.7908665676	-0.592658168	87.99613783
20120524	2012.3948	-0.08964913741	0.768696655	-1.191795313	96.65206168
20120525	2012.3975	-0.1880115112	0.7268045052	-1.687242414	104.5034791
20120526	2012.4003	-0.2877204634	0.6687851128	-2.085156686	113.2780335
20120527	2012.4030	-0.395289003	0.5992107889	-2.328322968	123.4121465
20120528	2012.4057	-0.4480519357	0.5215817902	-2.464494507	130.6634115
20120529	2012.4085	-0.422708917	0.4405838549	-2.48755443	133.8138298
20120530	2012.4112	-0.3442231258	0.3590567007	-2.392988987	133.7916968
20120531	2012.4139	-0.1903012826	0.283276466	-2.181672648	123.8926696
20120601	2012.4167	-0.1623023324	0.2114567979	-1.87186357	127.5078143
20120602	2012.4194	-0.1291852563	0.1470100725	-1.487082704	131.3074235
20120603	2012.4221	-0.0784392587	0.08985589966	-1.054175577	131.1191711
20120604	2012.4249	-0.02350433663	0.03972124732	-0.6094038797	120.6141648
20120605	2012.4276	0.04137575218	-0.0304599196	-0.1626743401	323.6403161
20120606	2012.4303	0.1089969789	-0.09110717792	0.2441120921	320.1088005
20120607	2012.4331	0.1794160899	-0.1714593014	0.5708940072	316.2990717
20120608	2012.4358	0.249460069	-0.2338177932	0.8873748012	316.8538478
20120609	2012.4385	0.3160124557	-0.3270432353	1.102945813	314.0172622
20120610	2012.4413	0.375344411	-0.416956959	1.282350449	311.9935244
20120611	2012.4440	0.4237239795	-0.5293938448	1.375994157	308.6735918
20120612	2012.4467	0.4573684258	-0.6161682437	1.476172538	306.5857038
20120613	2012.4495	0.4725994857	-0.7223166709	1.769188572	303.1960399
20120614	2012.4522	0.4661423828	-0.8068791771	2.025786126	300.0154672
20120615	2012.4549	0.4374654747	-0.9051172625	2.316885213	295.7956227
20120616	2012.4577	0.3878443124	-0.9858141107	2.505060625	291.4759365
20120617	2012.4604	0.3198966841	-1.073532631	2.745108024	286.5932703
20120618	2012.4631	0.2353325676	-1.142861559	2.859494049	281.6354395
20120619	2012.4658	0.1369520585	-1.201665819	2.903575128	276.5018608
20120620	2012.4686	0.0265681249	-1.239742617	2.716218118	271.227681
20120621	2012.4713	-0.09176615663	-1.248913274	2.864582893	265.797641
20120622	2012.4740	-0.214944403	-1.233671188	3.027110289	260.1164825
20120623	2012.4768	-0.3360876075	-1.180797552	3.400360146	254.1121825
20120624	2012.4795	-0.4515799521	-1.101393915	3.501319324	247.7059947
20120625	2012.4822	-0.5532888424	-1.003926858	3.717773242	241.1397573
20120626	2012.4850	-0.6415279256	-0.8917327738	3.66236069	234.2681091
20120627	2012.4877	-0.7034868324	-0.7792072326	3.714816569	227.9235253
20120628	2012.4904	-0.7411071578	-0.6753918748	3.505203361	222.3437959
20120629	2012.4932	-0.7507723664	-0.5873401992	3.403423633	218.0365917
20120630	2012.4959	-0.7368496457	-0.5132211109	3.042705299	214.8574906
20120701	2012.4986	-0.8218767791	-0.4580545131	2.792657934	209.1321252
20120702	2012.5014	-0.780494993	-0.4256997262	2.290141242	208.6090557
20120703	2012.5041	-0.7209005933	-0.4313797541	1.894625616	210.8958831
20120704	2012.5068	-0.6585342453	-0.4587130494	1.248972913	214.859786
20120705	2012.5096	-0.5847316129	-0.5224082139	0.7091540491	221.7780916
20120706	2012.5123	-0.5175245907	-0.5886948516	-0.01315730667	228.6811352
20120707	2012.5150	-0.4421179006	-0.6848703385	-0.5180851276	237.1557438
20120708	2012.5178	-0.3825461142	-0.7741814801	-1.015522718	243.7046518
20120709	2012.5205	-0.3228093497	-0.8821815822	-1.052208084	249.9013326
20120710	2012.5232	-0.2851508009	-0.9715774711	-0.687112462	253.6434263
20120711	2012.5260	-0.2552511536	-1.057782974	-0.2659008759	256.4334439
20120712	2012.5287	-0.249094475	-1.113871184	-0.01402780179	257.3943776
20120713	2012.5314	-0.2552277955	-1.148587949	0.3034417348	257.4718564
20120714	2012.5342	-0.2807415071	-1.139785466	0.5581621812	256.1628685
20120715	2012.5369	-0.3082430053	-1.091991253	0.9383283269	254.2368964
20120716	2012.5396	-0.352360099	-1.003996701	1.21869734	250.6610984
20120717	2012.5423	-0.3876548075	-0.8824093949	1.555001623	246.2834432
20120718	2012.5451	-0.4345363184	-0.7307747897	1.981887348	239.2632624
20120719	2012.5478	-0.4732424185	-0.5553878759	2.58242558	229.5658978
20120720	2012.5505	-0.5191269772	-0.3631264557	2.997142824	214.9725766
20120721	2012.5533	-0.5580549188	-0.1610888868	3.033006632	196.1013848
20120722	2012.5560	-0.6012957363	0.04348097047	2.803636027	175.8640197
20120723	2012.5587	-0.638101119	0.2458429441	2.430398048	158.9296878
20120724	2012.5615	-0.6765974341	0.4421668603	1.719885679	146.8347647
20120725	2012.5642	-0.7085284855	0.6284033665	0.817701024	138.4297533
20120726	2012.5669	-0.7402928442	0.8007402947	-0.2090508489	132.7537088
20120727	2012.5697	-0.7660123535	0.9548587695	-1.21867445	128.7374859
20120728	2012.5724	-0.7947889846	1.087009896	-2.173383721	126.1731499
20120729	2012.5751	-0.8164394481	1.193547524	-3.004833514	124.3738593
20120730	2012.5779	-0.8471525422	1.274607641	-3.708364351	123.6095184
20120731	2012.5806	-0.8689705789	1.328531543	-4.256714979	123.1880375
20120801	2012.5833	-0.9027368631	1.356819696	-4.633124727	123.6371317
20120802	2012.5861	-0.9288502854	1.357932428	-4.818773574	124.3728323
20120803	2012.5888	-0.9558430447	1.332233024	-4.788347909	125.65847
20120804	2012.5915	-0.9901096518	1.279380442	-4.531291247	127.7362074
20120805	2012.5943	-0.9563010395	1.204604709	-4.051421694	128.4450503
20120806	2012.5970	-0.9110834237	1.109971327	-3.386770876	129.3797343
20120807	2012.5997	-0.8042833531	1.000118847	-2.585522374	128.8058158
20120808	2012.6025	-0.6964114428	0.8762248906	-1.69171414	128.4771924
20120809	2012.6052	-0.561239814	0.7478970633	-0.7513220932	126.8854378
20120810	2012.6079	-0.4765921804	0.6033717022	0.4016904507	128.3045569
20120811	2012.6107	-0.3999441231	0.4702995696	1.758075471	130.377936
20120812	2012.6134	-0.3656959329	0.325026018	2.70198676	138.3697021
20120813	2012.6161	-0.3390407125	0.2117785382	3.447870545	148.0094338
20120814	2012.6189	-0.3291519435	0.0988884844	3.994202685	163.2779374
20120815	2012.6216	-0.3267098499	0.02309419771	4.329904512	175.9566485
20120816	2012.6243	-0.3273344815	-0.03460674928	4.415989287	186.0350571
20120817	2012.6270	-0.3289665928	-0.06347737799	4.249400012	190.9215616
20120818	2012.6298	-0.3253904054	-0.07053426029	3.851244227	192.2306737
20120819	2012.6325	-0.3176438178	-0.05682720242	3.290358249	190.1430411
20120820	2012.6352	-0.3035946252	-0.02643886471	2.611528932	184.9771079
20120821	2012.6380	-0.2833771057	0.01263619358	1.860201337	177.44679
20120822	2012.6407	-0.2436684435	0.06176622192	1.098038698	165.7759973
20120823	2012.6434	-0.1856315115	0.1047397899	0.3554171515	150.566789
20120824	2012.6462	-0.1196583891	0.1345371901	-0.2869213171	131.6501348
20120825	2012.6489	-0.04827982238	0.131256452	-0.827639596	110.1949445
20120826	2012.6516	0.0222846034	0.08583647648	-1.210815173	75.4463437
20120827	2012.6544	0.08919396559	0.03241624102	-1.513183894	19.97293423
20120828	2012.6571	0.1476048248	-0.03583663256	-1.660304705	346.3533393
20120829	2012.6598	0.1968378346	0.008874573974	-1.751403299	2.581472839
20120830	2012.6626	0.2290972948	0.05540185996	-1.848901042	13.59465823
20120831	2012.6653	0.2481060057	0.1163229768	-1.824169524	25.11924362
20120901	2012.6680	0.2500022987	0.1770542681	-1.697092184	35.30652901
20120902	2012.6708	0.2383344387	0.2426461378	-1.586165439	45.51360815
20120903	2012.6735	0.2134474281	0.3060737359	-1.390107208	55.10913852
20120904	2012.6762	0.1768632818	0.3660284364	-1.245986424	64.21037706
20120905	2012.6790	0.1294138962	0.4193238321	-1.205511166	72.84845649
20120906	2012.6817	0.07367381919	0.4649319236	-1.340767943	80.9956918
20120907	2012.6844	0.01313388075	0.5023616855	-1.691837787	88.50238469
20120908	2012.6872	-0.04466370078	0.5299298438	-1.447154448	94.81763367
20120909	2012.6899	-0.09749237685	0.547185146	-1.164432745	100.1024212
20120910	2012.6926	-0.1355111621	0.5534863172	-0.8734755193	103.7572197
20120911	2012.6954	-0.1585613749	0.54775595	-0.6046630075	106.1443814
20120912	2012.6981	-0.1546119525	0.5288895393	-0.4916581544	106.295392
20120913	2012.7008	-0.1273378114	0.4962203075	-0.6273593848	104.392427
20120914	2012.7036	-0.06707141275	0.4497888232	-0.487387996	98.48131182
20120915	2012.7063	0.01452128722	0.3909137908	-0.3370437367	87.87261
20120916	2012.7090	0.130406356	0.3216513611	-0.2702364225	67.93100574
20120917	2012.7117	0.2682985214	0.2441234927	-0.1768458911	42.29890444
20120918	2012.7145	0.4469646744	0.1709647068	-0.1498295983	20.93193293
20120919	2012.7172	0.6114056838	0.05996657489	-0.1019861725	5.601645071
20120920	2012.7199	0.7657422509	-0.05907741667	-0.1983641591	355.5883397
20120921	2012.7227	0.8644530058	-0.1805881952	-0.274841985	348.2003459
20120922	2012.7254	0.9081796854	-0.3302715593	-0.3845124055	340.0155339
20120923	2012.7281	0.8888859421	-0.4771484816	-0.4630352418	331.7733714
20120924	2012.7309	0.8795587889	-0.5593656694	-0.5772427013	327.5452036
20120925	2012.7336	0.8220055074	-0.5985478815	-0.6567667101	323.9395567
20120926	2012.7363	0.737958611	-0.6088730365	-0.7512679052	320.4747271
20120927	2012.7391	0.6120665181	-0.596081229	-0.8274451673	315.7580498
20120928	2012.7418	0.4750217677	-0.5712401239	-0.9305775458	309.7456343
20120929	2012.7445	0.3337670651	-0.5313385433	-1.04293985	302.1355067
20120930	2012.7473	0.1485580054	-0.4883303697	-1.187598755	286.9206101
20121001	2012.7500	-0.07985930811	-0.4400042695	-1.341388899	259.7129865
20121002	2012.7527	-0.2879198056	-0.404275601	-1.523766795	234.5420267
20121003	2012.7555	-0.4668649105	-0.3866227159	-1.716250025	219.6290207
20121004	2012.7582	-0.5806500914	-0.4070721999	-1.928868533	215.0328696
20121005	2012.7609	-0.6397893711	-0.4649269261	-2.148149176	216.0054354
20121006	2012.7637	-0.6411809534	-0.5548267043	-2.384721564	220.8702914
20121007	2012.7664	-0.5931032148	-0.5514442285	-2.613244896	222.915481
20121008	2012.7691	-0.4982001229	-0.5524637611	-2.841574898	227.9565283
20121009	2012.7719	-0.3644320285	-0.5515812782	-3.046087287	236.5470956
20121010	2012.7746	-0.1956249782	-0.5542744782	-3.241783321	250.5600854
20121011	2012.7773	-0.002190246647	-0.555132479	-3.405774328	269.7739436
20121012	2012.7801	0.2055147254	-0.5593939252	-3.550549201	290.1727362
20121013	2012.7828	0.4152659612	-0.5624961451	-3.645100903	306.4368076
20121014	2012.7855	0.613955078	-0.5666479661	-3.702081813	317.2946312
20121015	2012.7883	0.7864664045	-0.5664531907	-3.681499987	324.2366437
20121016	2012.7910	0.9094269729	-0.5614833163	-3.636115098	328.3086764
20121017	2012.7937	0.9950383843	-0.5460415308	-3.520934066	331.2435924
20121018	2012.7964	1.058270367	-0.5208744317	-3.384947107	333.7938608
20121019	2012.7992	1.06604103	-0.4914881568	-3.194268658	335.2483817
20121020	2012.8019	0.9988813553	-0.4525531545	-2.981693719	335.6266228
20121021	2012.8046	0.7394616901	-0.4018752811	-2.730337706	331.4772446
20121022	2012.8074	0.6250629551	-0.3382971809	-2.461946239	331.5768186
20121023	2012.8101	0.5373043011	-0.2627303817	-2.170120686	333.9423497
20121024	2012.8128	0.4107362935	-0.1839488092	-1.885460463	335.8747135
20121025	2012.8156	0.2584460417	-0.0937308397	-1.602161694	340.0657689
20121026	2012.8183	0.111994465	0.0004713674613	-1.347265811	0.2411476911
20121027	2012.8210	-0.007200012566	0.09292485854	-1.116887862	94.43054487
20121028	2012.8238	-0.08524546262	0.1782216645	-0.9262717661	115.5623236
20121029	2012.8265	-0.103967314	0.2532723404	-0.7825487585	112.31796
20121030	2012.8292	-0.07992263141	0.3127037971	-0.6857559442	104.3370588
20121031	2012.8320	-0.01856056505	0.3559058046	-0.6534785726	92.98528301
20121101	2012.8347	0.07644898468	0.3841724129	-0.6670397293	78.74536035
20121102	2012.8374	0.2147576605	0.3995127989	-0.7341321395	61.73979725
20121103	2012.8402	0.3440802289	0.4037739652	-0.8256663248	49.56367456
20121104	2012.8429	0.2628611215	0.3985811149	-0.9471209569	56.59546168
20121105	2012.8456	0.2075407094	0.3859432374	-1.070727597	61.73088898
20121106	2012.8484	0.1719794011	0.367137386	-1.201228593	64.90004063
20121107	2012.8511	0.1511008821	0.3444747202	-1.31240286	66.31575316
20121108	2012.8538	0.1042417556	0.3189285219	-1.40907392	71.90002491
20121109	2012.8566	0.04365821498	0.2929424541	-1.475793736	81.52340451
20121110	2012.8593	-0.03635484453	0.2668035283	-1.514344267	97.75937768
20121111	2012.8620	-0.1041964334	0.243491278	-1.507004056	113.167378
20121112	2012.8648	-0.1781340197	0.2239220205	-1.449076963	128.5028838
20121113	2012.8675	-0.235320123	0.2111918685	-1.323517719	138.0930948
20121114	2012.8702	-0.2964022227	0.2064487401	-1.119937288	145.1421909
20121115	2012.8730	-0.340759997	0.2128223795	-0.8391051929	148.0130737
20121116	2012.8757	-0.3855595858	0.2322897196	-0.505635643	148.9321192
20121117	2012.8784	-0.4182043247	0.2667816637	-0.1188068751	147.4653081
20121118	2012.8811	-0.4477677364	0.3134223594	0.2989481209	145.0092728
20121119	2012.8839	-0.4914024955	0.3684845035	0.7186506323	143.1351298
20121120	2012.8866	-0.5362080763	0.4251548798	1.118326097	141.5893965
20121121	2012.8893	-0.5608040103	0.4762754163	1.47349254	139.6596715
20121122	2012.8921	-0.5692340732	0.5131687832	1.853950641	137.9651033
20121123	2012.8948	-0.5754286685	0.5262157298	2.028920437	137.5578311
20121124	2012.8975	-0.5676334464	0.5215000136	2.222402861	137.4254804
20121125	2012.9003	-0.5557505415	0.4886043273	2.316019501	138.6787368
20121126	2012.9030	-0.5333199055	0.4225059724	2.110272571	141.6130785
20121127	2012.9057	-0.509143128	0.3280607463	1.748101918	147.2047398
20121128	2012.9085	-0.4816013544	0.2045593048	1.321095927	156.9867293
20121129	2012.9112	-0.4615403211	0.07707289158	0.8743716749	170.5196208
20121130	2012.9139	-0.4399277412	-0.06976988159	0.4220210082	189.0117103
20121201	2012.9167	-0.417185666	-0.2037264651	-0.02145624897	206.0278876
20121202	2012.9194	-0.3958420813	-0.3291880127	-0.4443250185	219.7474013
20121203	2012.9221	-0.3740784942	-0.4455756481	-0.8305278994	229.9852033
20121204	2012.9249	-0.3576106024	-0.5468246162	-1.166316923	236.8162457
20121205	2012.9276	-0.3429611422	-0.6273769812	-1.441020675	241.3363903
20121206	2012.9303	-0.3250088944	-0.6876546943	-1.636994052	244.702996
20121207	2012.9331	-0.3250339059	-0.7210920204	-1.742865291	245.7364185
20121208	2012.9358	-0.334552896	-0.7235546483	-1.74348616	245.1854035
20121209	2012.9385	-0.3465360943	-0.6928981232	-1.577541031	243.4291917
20121210	2012.9413	-0.3611415159	-0.634492068	-1.211435653	240.3522435
20121211	2012.9440	-0.3743691779	-0.5561204592	-0.9517052606	236.0523482
20121212	2012.9467	-0.3788879867	-0.4638449101	-0.7527609838	230.7566082
20121213	2012.9495	-0.3808551828	-0.3611113391	-0.5315503923	223.4757102
20121214	2012.9522	-0.3725670111	-0.2551333723	-0.2901545435	214.4032891
20121215	2012.9549	-0.3580578749	-0.1634617661	-0.05422334491	204.5378029
20121216	2012.9577	-0.3430402002	-0.08218375974	0.1778691574	193.4726914
20121217	2012.9604	-0.3212685898	-0.01054752817	0.382581888	181.880395
20121218	2012.9631	-0.2988011793	0.05155489834	0.5530981954	170.2106186
20121219	2012.9658	-0.2707970307	0.104037242	0.6815321191	158.9837736
20121220	2012.9686	-0.2403330582	0.1443575511	0.7433994193	149.0086046
20121221	2012.9713	-0.2058050428	0.164935345	0.7694070437	141.2907744
20121222	2012.9740	-0.1689269844	0.1758771931	0.7157865895	133.8452469
20121223	2012.9768	-0.1292865471	0.184426845	0.6099045093	125.0311491
20121224	2012.9795	-0.09339775585	0.2068551283	0.4490394513	114.2997893
20121225	2012.9822	-0.05936023273	0.2535406435	0.2853562434	103.1770382
20121226	2012.9850	-0.02124699611	0.3081568492	0.1058408328	93.94422389
20121227	2012.9877	0.003371575737	0.3498643044	-0.02830972193	89.44786857
20121228	2012.9904	-0.02162157407	0.3841017117	-0.1314164412	93.22185216
20121229	2012.9932	-0.02090868103	0.4138924897	-0.1498085632	92.89196274
20121230	2012.9959	-0.03432082855	0.4359834718	-0.1317611884	94.50106905
20121231	2012.9986	-0.006369865022	0.4555853441	-0.04333158157	90.80104114
20130101	2013.0014	0.02024329453	0.4715117328	0.06732721268	87.54164441
20130102	2013.0041	0.05846941842	0.4837147907	0.2346102379	83.1077637
20130103	2013.0068	0.1076483587	0.4916111742	0.4074413478	77.64885492
20130104	2013.0096	0.1730967572	0.4989083943	0.6228160595	70.86573257
20130105	2013.0123	0.2577822893	0.501696262	0.826862875	62.80492991
20130106	2013.0151	0.3572612674	0.5072012694	1.073870608	54.83998742
