# YYYYMMDD	YYYY.DECM	N_filt(mm)	E_filt(mm)	U_filt(mm)	Azimuth(deg)
20120401	2012.2500	-0.3590572957	0.1415853134	0.3807270226	158.4794364
20120402	2012.2527	-0.5989194039	0.4064153372	0.5158145348	145.8399294
20120403	2012.2555	-0.8238826124	0.6586614831	0.6339967272	141.3590501
20120404	2012.2582	-1.022070303	0.8878551109	0.7218885371	139.0197084
20120405	2012.2609	-1.183918026	1.08531768	0.7688745526	137.4879885
20120406	2012.2637	-1.302876903	1.244764959	0.7682121808	136.3066954
20120407	2012.2664	-1.375776469	1.362693674	0.71778156	135.2737234
20120408	2012.2691	-1.40284952	1.438529631	0.6204165499	134.2805563
20120409	2012.2719	-1.387458163	1.474537754	0.4837662039	133.2572462
20120410	2012.2746	-1.335577886	1.475515299	0.3196723998	132.1501443
20120411	2012.2773	-1.255105881	1.448308841	0.1431133782	130.9122344
20120412	2012.2801	-1.155066047	1.401208315	-0.02916853889	129.4999768
20120413	2012.2828	-1.044782756	1.343272985	-0.1801894899	127.8753791
20120414	2012.2855	-0.9330872531	1.283636299	-0.294213698	126.0137544
20120415	2012.2883	-0.8276108178	1.230826864	-0.3580422535	123.9169772
20120416	2012.2910	-0.7342137532	1.192140226	-0.3619886585	121.6280301
20120417	2012.2937	-0.6565960065	1.173101066	-0.3005136614	119.2361612
20120418	2012.2964	-0.596125538	1.177057808	-0.1725625865	116.8601126
20120419	2012.2992	-0.5519009775	1.204943446	0.01833775968	114.6092293
20120420	2012.3019	-0.5210396532	1.255221181	0.264206625	112.5432341
20120421	2012.3046	-0.4991562598	1.324019033	0.5529951108	110.656484
20120422	2012.3074	-0.4809753668	1.405446613	0.8692689815	108.8920974
20120423	2012.3101	-0.4610068066	1.492079105	1.195169868	107.1695493
20120424	2012.3128	-0.4342088076	1.57558602	1.511558037	105.4074396
20120425	2012.3156	-0.3965661209	1.647469752	1.799210416	103.5343124
20120426	2012.3183	-0.3455155755	1.699857099	2.039991367	101.4895045
20120427	2012.3210	-0.2801643174	1.726262132	2.217979842	99.21846197
20120428	2012.3238	-0.2012747959	1.722226248	2.320556453	96.66585987
20120429	2012.3265	-0.1110326286	1.685751994	2.339412187	93.76836294
20120430	2012.3292	-0.01265311802	1.617478348	2.27137634	90.44820104
20120501	2012.3320	0.09009610074	1.520584219	2.118926993	86.60913345
20120502	2012.3347	0.1933796417	1.400442852	1.890272126	82.13805046
20120503	2012.3374	0.293725297	1.264077824	1.598958321	76.918698
20120504	2012.3402	0.3883572502	1.119489944	1.263029809	70.86805709
20120505	2012.3429	0.4753967691	0.9749321071	0.9037900901	64.00519362
20120506	2012.3456	0.553902023	0.8382059889	0.544222109	56.54253427
20120507	2012.3484	0.6237349636	0.7160429213	0.2071349174	48.94133356
20120508	2012.3511	0.6852756844	0.6136185215	-0.08685269832	41.84231756
20120509	2012.3538	0.7390442667	0.5342426293	-0.3213131355	35.86253135
20120510	2012.3566	0.7853167341	0.4792589438	-0.4857539971	31.39466101
20120511	2012.3593	0.8238205881	0.4481690376	-0.5768443657	28.54676162
20120512	2012.3620	0.853571078	0.4389567493	-0.5989073289	27.21490853
20120513	2012.3648	0.8728791595	0.4485437792	-0.5635642159	27.19713498
20120514	2012.3675	0.8795355012	0.4732784262	-0.4885490278	28.2847136
20120515	2012.3702	0.8711482172	0.5093613081	-0.3958441716	30.31487264
20120516	2012.3730	0.8455822498	0.5531431598	-0.3093843124	33.19096782
20120517	2012.3757	0.8014222832	0.6012766001	-0.2526087779	36.87949991
20120518	2012.3784	0.7383704292	0.6507461886	-0.2461209502	41.39061534
20120519	2012.3811	0.6575025819	0.6988221358	-0.3056606647	46.74493913
20120520	2012.3839	0.5613410526	0.742979547	-0.4405301219	52.92797096
20120521	2012.3866	0.4537429496	0.7808098176	-0.6525527968	59.83834083
20120522	2012.3893	0.3396379566	0.8099402915	-0.935616858	67.24989141
20120523	2012.3921	0.2246662821	0.8279784236	-1.275864364	74.81872074
20120524	2012.3948	0.1147671695	0.8325011844	-1.652591792	82.15077824
20120525	2012.3975	0.01575684478	0.8211106555	-2.03987928	88.90064767
20120526	2012.4003	-0.06707815871	0.7915685023	-2.408865264	94.84371882
20120527	2012.4030	-0.1293530614	0.7420054283	-2.730468832	99.88893798
20120528	2012.4057	-0.1679025487	0.6711804368	-2.978272388	104.0448753
20120529	2012.4085	-0.1810214225	0.5787457102	-3.131227491	107.3687598
20120530	2012.4112	-0.1686049102	0.4654635985	-3.175837503	109.9119097
20120531	2012.4139	-0.1321686289	0.3333260197	-3.1075107	111.6290481
20120601	2012.4167	-0.07473472139	0.1855409863	-2.93088204	111.9392604
20120602	2012.4194	-0.0005808837259	0.02637048544	-2.659062271	91.26189578
20120603	2012.4221	0.08513558975	-0.1391746	-2.311943772	301.4548706
20120604	2012.4249	0.1768460247	-0.3057535992	-1.913823825	300.0448276
20120605	2012.4276	0.2690752822	-0.4681777569	-1.490679715	299.8872266
20120606	2012.4303	0.3569096466	-0.6218877512	-1.067449266	299.852087
20120607	2012.4331	0.4363514719	-0.7633577754	-0.6656376325	299.7531998
20120608	2012.4358	0.5045048349	-0.8903690944	-0.3014966382	299.5369482
20120609	2012.4385	0.559574376	-1.002119575	0.0150656569	299.1785902
20120610	2012.4413	0.6006998389	-1.099161957	0.2807715731	298.6569187
20120611	2012.4440	0.6276779542	-1.183182857	0.4984733708	297.9459297
20120612	2012.4467	0.640636241	-1.256645009	0.6759894961	297.0124369
20120613	2012.4495	0.6397233476	-1.322325532	0.8244982364	295.8170741
20120614	2012.4522	0.6248730551	-1.382801291	0.956748788	294.3176997
20120615	2012.4549	0.5956857155	-1.439955498	1.085315994	292.4740685
20120616	2012.4577	0.5514513908	-1.494594472	1.221054561	290.2522398
20120617	2012.4604	0.4913157432	-1.546257156	1.371849492	287.6274032
20120618	2012.4631	0.414567135	-1.593267377	1.541727817	284.5849143
20120619	2012.4658	0.3210030523	-1.633026023	1.730377021	281.1208131
20120620	2012.4686	0.211314939	-1.662484869	1.933088797	277.2439003
20120621	2012.4713	0.08741575763	-1.678706254	2.141110284	272.9808873
20120622	2012.4740	-0.04736724129	-1.679403603	2.342351835	268.3844124
20120623	2012.4768	-0.1882937664	-1.663372837	2.522384222	263.5416119
20120624	2012.4795	-0.3294286201	-1.630753498	2.665658902	258.5793718
20120625	2012.4822	-0.4640565555	-1.583092761	2.756884945	253.6624037
20120626	2012.4850	-0.5852379586	-1.523219307	2.782475831	248.9826642
20120627	2012.4877	-0.6864296486	-1.454961727	2.73194218	244.7427475
20120628	2012.4904	-0.7620912648	-1.38276269	2.599084072	241.1392279
20120629	2012.4932	-0.8082056398	-1.311245325	2.382856587	238.3517756
20120630	2012.4959	-0.8226580265	-1.244785822	2.087840905	236.5399544
20120701	2012.4986	-0.8054409452	-1.187139466	1.724320106	235.8442044
20120702	2012.5014	-0.7586733464	-1.14115511	1.30799998	236.3828761
20120703	2012.5041	-0.6864400291	-1.108595394	0.8594144937	238.2342921
20120704	2012.5068	-0.5944701747	-1.090062564	0.4030243109	241.3939725
20120705	2012.5096	-0.4896854903	-1.085018603	-0.03401627462	245.7096154
20120706	2012.5123	-0.3796584838	-1.091883027	-0.4234582511	250.8269333
20120707	2012.5150	-0.2720266443	-1.108187444	-0.7379299908	256.2083042
20120708	2012.5178	-0.1739091216	-1.130761945	-0.9532213133	261.2565233
20120709	2012.5205	-0.09137319856	-1.155927676	-1.050715929	265.4803097
20120710	2012.5232	-0.02899946442	-1.179674679	-1.019701121	268.5918047
20120711	2012.5260	0.01040827528	-1.197814767	-0.8592094727	270.4978526
20120712	2012.5287	0.02593522903	-1.206114738	-0.5790408385	271.2318481
20120713	2012.5314	0.01847952626	-1.200430472	-0.1996985659	270.8819463
20120714	2012.5342	-0.009495615027	-1.176867529	0.2488478268	269.5377161
20120715	2012.5369	-0.05434053773	-1.131982574	0.7294403992	267.2516404
20120716	2012.5396	-0.111672218	-1.063018052	1.200736366	264.0029577
20120717	2012.5423	-0.1768411979	-0.9681434658	1.620538005	259.6484648
20120718	2012.5451	-0.2453569157	-0.8466701458	1.949064043	253.838917
20120719	2012.5478	-0.3132261928	-0.6992109033	2.15186191	245.8690053
20120720	2012.5505	-0.3771719402	-0.5277640678	2.202178149	234.4481195
20120721	2012.5533	-0.4347139693	-0.3357087398	2.082719917	217.6771869
20120722	2012.5560	-0.4841139784	-0.1277041005	1.786822011	194.7773928
20120723	2012.5587	-0.5242122511	0.09050978802	1.319063804	170.2039684
20120724	2012.5615	-0.5542078192	0.3124070448	0.6953637444	150.5900364
20120725	2012.5642	-0.5734477274	0.5310529029	-0.05746389511	137.1981451
20120726	2012.5669	-0.5812882466	0.7395286733	-0.9027510733	128.1682428
20120727	2012.5697	-0.5770692841	0.9313504686	-1.795700378	121.7825567
20120728	2012.5724	-0.5602077235	1.100820511	-2.685839683	116.97155
20120729	2012.5751	-0.5303798859	1.243265315	-3.520142867	113.1032085
20120730	2012.5779	-0.4877415502	1.355150183	-4.246600091	109.7946649
20120731	2012.5806	-0.433129057	1.434100256	-4.817901601	106.8054431
20120801	2012.5833	-0.3681926094	1.478883987	-5.19485828	103.9804994
20120802	2012.5861	-0.2954282769	1.489411126	-5.349216948	101.2191343
20120803	2012.5888	-0.218092583	1.466768328	-5.265618823	98.45729985
20120804	2012.5915	-0.1399981245	1.413279602	-4.942575406	95.65720909
20120805	2012.5943	-0.06520278924	1.332552057	-4.392467971	92.80129201
20120806	2012.5970	0.002376275828	1.229456812	-3.640683133	89.88925971
20120807	2012.5997	0.05937290529	1.110002091	-2.724058245	86.93822364
20120808	2012.6025	0.1033437609	0.9810777919	-1.688813773	83.98681136
20120809	2012.6052	0.1330409717	0.8500794648	-0.5880912868	81.10512621
20120810	2012.6079	0.1485378105	0.7244429651	0.5208677341	78.4128243
20120811	2012.6107	0.151180884	0.6111331584	1.579898537	76.10523731
20120812	2012.6134	0.1433706056	0.5161332818	2.533376717	74.47586328
20120813	2012.6161	0.1282051475	0.4439807603	3.331779785	73.89324749
20120814	2012.6189	0.1090546437	0.3973917987	3.935056024	74.65432848
20120815	2012.6216	0.08914905042	0.3770108541	4.31546544	76.69604757
20120816	2012.6243	0.07125372914	0.3813150626	4.459570104	79.41559903
20120817	2012.6270	0.05747434385	0.4067000247	4.36911548	81.95629608
20120818	2012.6298	0.04919382749	0.4477664957	4.060657231	83.73034895
20120819	2012.6325	0.04711566901	0.4978088915	3.563940726	84.59328391
20120820	2012.6352	0.05137400681	0.5494759222	2.919211017	84.65858034
20120821	2012.6380	0.06166680543	0.5955392674	2.173776199	84.08821468
20120822	2012.6407	0.07737091381	0.6296776102	1.378219452	82.99496001
20120823	2012.6434	0.09761057067	0.6471703139	0.5826399125	81.42291521
20120824	2012.6462	0.1212740769	0.6454046301	-0.1667694224	79.35798799
20120825	2012.6489	0.1469964499	0.6241308792	-0.8305779921	76.74711792
20120826	2012.6516	0.1731367115	0.5854424394	-1.378237552	73.5251273
20120827	2012.6544	0.1977754447	0.5335008677	-1.789342675	69.65962671
20120828	2012.6571	0.2187495759	0.4740602253	-2.053978673	65.22958752
20120829	2012.6598	0.2337350809	0.4138605672	-2.172207525	60.54364182
20120830	2012.6626	0.2403856376	0.3599595475	-2.152853725	56.26448876
20120831	2012.6653	0.2365313489	0.3190621411	-2.011829481	53.44923321
20120901	2012.6680	0.2204327058	0.2968976066	-1.77025609	53.40782627
20120902	2012.6708	0.1910720895	0.2976792386	-1.452591011	57.30471418
20120903	2012.6735	0.1484507847	0.3236680337	-1.084878636	65.3613786
20120904	2012.6762	0.09384471442	0.3748554129	-0.6931539436	75.94493283
20120905	2012.6790	0.02996065602	0.4487882403	-0.3019943643	86.18065806
20120906	2012.6817	-0.0390646496	0.5405728946	0.06675277773	94.13331024
20120907	2012.6844	-0.1078607735	0.6430978916	0.3949891578	99.52106683
20120908	2012.6872	-0.170219001	0.7474981657	0.6690412714	102.8285385
20120909	2012.6899	-0.219651452	0.8438526108	0.8799456159	104.5901003
20120910	2012.6926	-0.2500453819	0.922068872	1.023361572	105.172499
20120911	2012.6954	-0.2563257169	0.9728727752	1.09918554	104.7604469
20120912	2012.6981	-0.2350398895	0.9887903842	1.110967744	103.3713074
20120913	2012.7008	-0.1847958116	0.9649971293	1.065237459	100.8408282
20120914	2012.7036	-0.1065074986	0.8999178195	0.9708315399	96.74969897
20120915	2012.7063	-0.00342771381	0.7954926124	0.8382916834	90.24688139
20120916	2012.7090	0.1190295754	0.6570693614	0.6793473407	79.73209348
20120917	2012.7117	0.2536561057	0.4929319368	0.5064578409	62.77026242
20120918	2012.7145	0.3919737813	0.3135171799	0.3323758733	38.6542956
20120919	2012.7172	0.5248751276	0.1304048337	0.1697044639	13.95258833
20120920	2012.7199	0.6433234963	-0.04481290968	0.03041796789	356.0153022
20120921	2012.7227	0.7390413896	-0.2016591698	-0.07469940758	344.7374904
20120922	2012.7254	0.8051114128	-0.3317665937	-0.1367445752	337.6046467
20120923	2012.7281	0.8364300604	-0.4296169339	-0.1495243814	332.8135339
20120924	2012.7309	0.829986135	-0.4929381384	-0.1104640818	329.2934453
20120925	2012.7336	0.7849711788	-0.5227233279	-0.02146681175	326.3397968
20120926	2012.7363	0.702756556	-0.5228935497	0.1104647182	323.3485132
20120927	2012.7391	0.5867822733	-0.499673511	0.2730657214	319.5839978
20120928	2012.7418	0.442393073	-0.4607770758	0.4493003519	313.8339071
20120929	2012.7445	0.2766328184	-0.4145073088	0.6185945072	303.7182512
20120930	2012.7473	0.09798262619	-0.3688706211	0.7587410383	284.8758804
20121001	2012.7500	-0.08398271429	-0.3307921494	0.8482563259	255.7545218
20121002	2012.7527	-0.2590359388	-0.3055033603	0.868865825	229.7054278
20121003	2012.7555	-0.4168315953	-0.2961552366	0.8077614168	215.393464
20121004	2012.7582	-0.5475126608	-0.3036899358	0.659306069	209.0159047
20121005	2012.7609	-0.642361232	-0.3269747149	0.4259517674	206.9770041
20121006	2012.7637	-0.6944585944	-0.3631629894	0.1182597904	207.6070499
20121007	2012.7664	-0.6993073408	-0.4082100699	-0.2459654846	210.2735989
20121008	2012.7691	-0.6553516481	-0.4574517261	-0.6433168743	214.9159976
20121009	2012.7719	-0.5643204377	-0.506159538	-1.04700324	221.8900858
20121010	2012.7746	-0.4313206194	-0.5500115643	-1.429382513	231.8963576
20121011	2012.7773	-0.264627696	-0.5854465147	-1.76450694	245.6765545
20121012	2012.7801	-0.0751565621	-0.6098940683	-2.030393863	262.9749219
20121013	2012.7828	0.124360318	-0.6218899352	-2.210800983	281.3083672
20121014	2012.7855	0.3204152903	-0.6210907246	-2.296374109	297.2888145
20121015	2012.7883	0.4998790716	-0.6082009984	-2.285117152	309.4167106
20121016	2012.7910	0.6511350148	-0.5848183468	-2.18219342	318.0713336
20121017	2012.7937	0.7650652901	-0.5531999695	-1.999109923	324.1302299
20121018	2012.7964	0.8357830571	-0.5159604195	-1.752378898	328.311401
20121019	2012.7992	0.8610394743	-0.4757232794	-1.461799286	331.0794022
20121020	2012.8019	0.842272478	-0.434764467	-1.148545446	332.698108
20121021	2012.8046	0.784302694	-0.3946957577	-0.8332766271	333.2864401
20121022	2012.8074	0.6947199928	-0.3562393493	-0.5344782641	332.8521019
20121023	2012.8101	0.5830385681	-0.3191357298	-0.2672082149	331.3051841
20121024	2012.8128	0.4597225443	-0.2822087952	-0.04235105963	328.4555826
20121025	2012.8156	0.3351930037	-0.2435880002	0.1335995896	323.9937322
20121026	2012.8183	0.2189205289	-0.2010624556	0.2582851077	317.434804
20121027	2012.8210	0.1186876299	-0.1525199291	0.3328603821	307.8892632
20121028	2012.8238	0.04007654495	-0.09640564146	0.3611445947	292.5730208
20121029	2012.8265	-0.01379535687	-0.03212429722	0.3486874593	246.759532
20121030	2012.8292	-0.04230146786	0.03968830274	0.3018809567	136.8255042
20121031	2012.8320	-0.04712380992	0.1170755791	0.2272240828	111.9251598
20121101	2012.8347	-0.03190255399	0.1968694865	0.1308227239	99.20472319
20121102	2012.8374	-0.001757212125	0.2749817051	0.01817634126	90.36613151
20121103	2012.8402	0.03728036318	0.3468324372	-0.1057394845	83.86494012
20121104	2012.8429	0.07887609151	0.4078539208	-0.2361389143	79.0545194
20121105	2012.8456	0.1169932694	0.45399797	-0.367934661	75.54952638
20121106	2012.8484	0.1464214965	0.4821818874	-0.4952199047	73.10832911
20121107	2012.8511	0.1631767697	0.4906232511	-0.6108716208	71.60335037
20121108	2012.8538	0.1647283475	0.4790358273	-0.7064203089	71.02319777
20121109	2012.8566	0.1500318132	0.4486785136	-0.7722980131	71.51078633
20121110	2012.8593	0.1193784549	0.4022611553	-0.7985106609	73.47076808
20121111	2012.8620	0.07410451797	0.3437160186	-0.7756912672	77.83336974
20121112	2012.8648	0.0162321305	0.2778474427	-0.6963995857	86.65652255
20121113	2012.8675	-0.05187351761	0.209879783	-0.5564693814	103.8828981
20121114	2012.8702	-0.1277560886	0.1449359245	-0.3561835584	131.3950801
20121115	2012.8730	-0.2089874575	0.08749304146	-0.101074991	157.2832736
20121116	2012.8757	-0.2931593163	0.04087585003	0.1978090639	172.0622989
20121117	2012.8784	-0.3777935604	0.00685517961	0.5242858709	178.9604647
20121118	2012.8811	-0.4602391898	-0.0145866309	0.8580894677	181.8153011
20121119	2012.8839	-0.5376206098	-0.02528517038	1.176526097	182.6927293
20121120	2012.8866	-0.6068817333	-0.02871116256	1.456559166	182.7086048
20121121	2012.8893	-0.6649407289	-0.02959481994	1.677073539	182.5484075
20121122	2012.8921	-0.7089400495	-0.03339386293	1.821035292	182.696863
20121123	2012.8948	-0.7365536205	-0.04565486087	1.877270015	183.5469087
20121124	2012.8975	-0.7463019246	-0.07133357765	1.84162598	185.4599002
20121125	2012.9003	-0.7378240297	-0.1141589503	1.71736862	188.7952795
20121126	2012.9030	-0.7120588747	-0.1761361938	1.514766513	193.8938915
20121127	2012.9057	-0.6712952315	-0.2572711951	1.249956323	200.9691293
20121128	2012.9085	-0.6190634642	-0.3555554782	0.9432792902	209.8706533
20121129	2012.9112	-0.5598643838	-0.4671946638	0.6173329828	219.8442642
20121130	2012.9139	-0.4987570118	-0.5870203369	0.2949697301	229.6473806
20121201	2012.9167	-0.4408496328	-0.7090096469	-0.00258086391	238.1273834
20121202	2012.9194	-0.3907523089	-0.8268418314	-0.2573426911	244.7053262
20121203	2012.9221	-0.3520557763	-0.9344321669	-0.4558819421	249.3556454
20121204	2012.9249	-0.3269033881	-1.026394761	-0.5901645271	252.3334922
20121205	2012.9276	-0.3157172576	-1.0983973	-0.6579029002	253.9635241
20121206	2012.9303	-0.3171242238	-1.14738682	-0.6623493014	254.5498271
20121207	2012.9331	-0.3281028859	-1.171685813	-0.6115605142	254.3563543
20121208	2012.9358	-0.3443433263	-1.170976667	-0.517242331	253.6132327
20121209	2012.9385	-0.3607796086	-1.146201938	-0.3933459542	252.5280338
20121210	2012.9413	-0.3722259022	-1.099406363	-0.2546082664	251.2954469
20121211	2012.9440	-0.3740266988	-1.033539661	-0.1152053783	250.105364
20121212	2012.9467	-0.3626269943	-0.9522339749	0.01235612139	249.1523103
20121213	2012.9495	-0.3359825175	-0.8595678521	0.1180362111	248.6507758
20121214	2012.9522	-0.2937596033	-0.7598267348	0.1947235071	248.8628036
20121215	2012.9549	-0.2373112185	-0.6572657575	0.2383888344	250.1474654
20121216	2012.9577	-0.1694512096	-0.5558760311	0.2479968173	253.046874
20121217	2012.9604	-0.09407537153	-0.459153904	0.2252616049	258.4210027
20121218	2012.9631	-0.01569056082	-0.3698773886	0.1743287086	267.5709133
20121219	2012.9658	0.06108734548	-0.2899064397	0.1014358432	281.8989548
20121220	2012.9686	0.1320134475	-0.2200383475	0.01455273899	300.9619259
20121221	2012.9713	0.1936283488	-0.1599546259	-0.07705551055	320.4401962
20121222	2012.9740	0.2435748855	-0.1082858003	-0.1634132471	336.0315604
20121223	2012.9768	0.2807978672	-0.06280067532	-0.2345916443	347.3932148
20121224	2012.9795	0.3056214391	-0.02070460132	-0.2815784199	356.1243673
20121225	2012.9822	0.3197094327	0.02098890502	-0.2971335371	3.756074545
20121226	2012.9850	0.3259187021	0.06506367799	-0.2764897949	11.28963613
20121227	2012.9877	0.3280554813	0.1137399425	-0.2177828811	19.12191571
20121228	2012.9904	0.3305460388	0.1683985425	-0.1221379983	26.99682433
20121229	2012.9932	0.3380394762	0.2294265199	0.006610070496	34.16463701
20121230	2012.9959	0.3549706607	0.2961957164	0.1625312102	39.84240036
20121231	2012.9986	0.3851197307	0.367160405	0.3384595193	43.63242681
20130101	2013.0014	0.4312075877	0.4400446384	0.5269589546	45.58112718
20130102	2013.0041	0.4945637677	0.5120892227	0.7212277197	45.9973975
20130103	2013.0068	0.5748955568	0.5803337123	0.9157866486	45.26971361
20130104	2013.0096	0.6701778307	0.6419096673	1.106849126	43.76578663
20130105	2013.0123	0.7766746309	0.6943162904	1.292332875	41.79545003
20130106	2013.0151	0.8890961773	0.7356466839	1.471522382	39.60468103
20130107	2013.0178	1.000886637	0.7647391526	1.644432612	37.38205995
